33.77506963899742,-61.00399216265884,-8.540023278049032;30.346411250021582,-2.00836770392423,-14.223950996186252;-8.291476578119529,7.921249604977297,-18.974437441719367;10.084166332959727,-6.9481694201277175,7.3218731091381;4.020608525119274,4.855895378594662,-13.296182450962569;-2.9320703216754156,0.8223892064728227,-14.403501133995569;-1.830342127709494,2.9832604547201385,-2.6191203091487907;-0.49948694406580935,9.76389245541142,-16.813091540802137;-1.3063176270032202,0.500722395569592,-8.764882183144913;-5.342582717505797,0.0739866976636741,-3.5150629960734285;-5.011558416805376,18.078307383160617,-15.20195249644369;-3.9810613571290276,0.3499742303823049,-6.425698984707083;-1.151438856008612,-3.314923070512325,-8.113749797646324;-23.30960730514743,17.705235632218105,-5.84750147161095;10.193385353053213,13.97902743137093,-4.2150912002931005;-4.841577602598695,4.906382380345023,-9.098418224612686;-0.10686662394165947,-5.629507774875845,-4.163098896601824;
33.85492653297592,-61.018564498866134,-8.761013753847052;30.279133032003624,-2.4780487728186884,-14.460961068781042;-8.261196205867012,7.910634705313868,-19.441588344416363;10.138898694433806,-6.940791733460793,7.982750850845212;4.010797125255314,4.724346970133517,-13.201196127587018;-2.9336438311970885,0.8227884709057701,-13.589970279978184;-1.836533707245847,2.983526816017243,-2.3258326245807126;-0.4942507367756519,9.837756894453586,-17.16897386261416;-1.304737238004184,0.5004941629651916,-8.010395159599355;-5.300028338219585,0.07157108852960892,-3.077409536111304;-5.006994530830739,18.11946420163752,-15.395389354217217;-3.9787134989927258,0.3498031615247249,-6.322065494966473;-1.126228791098127,-3.3184137607943036,-7.780612043790359;-23.309607278780344,17.705235612011574,-5.847501465021877;10.185122012850217,13.944514053452307,-4.417442276799745;-4.820258785351762,4.903133866526585,-8.61933092206764;-0.0910699075815713,-5.630635703127464,-3.8158924713987723;
33.816230368971326,-61.011309358438005,-8.653713769717887;30.435231447503377,-1.3638927209314762,-13.897908669042284;-8.23849008242179,7.902479321947143,-19.79306515443573;10.141471795179495,-6.940412168618013,8.013918339687123;4.027881729404277,5.071849597392919,-13.166734322900083;-2.9344710722263985,0.8229853501394995,-13.17299304862403;-1.8390365004202107,2.9836238579959966,-2.20885417864943;-0.4915786620288333,9.771111554479376,-18.25787732166072;-1.3040910362712346,0.5004082855036672,-7.703831498100033;-5.280022296853981,0.07057062260523361,-2.871170952609006;-4.997909867965057,18.154024939401715,-16.170987545127325;-3.98466839374211,0.35055776093664015,-6.592870426281824;-1.12813611959275,-3.31816189867186,-7.8055327249656585;-23.309607253986705,17.70523559305143,-5.8475014588202185;10.17666662152475,13.441361945523617,-4.974234528839171;-4.820745206246395,4.9032733524092365,-8.630262850331341;-0.09521582902005787,-5.630336170400864,-3.9069001419478226;
33.83185259336803,-61.01417849305,-8.696934338823008;30.323347916971713,-2.1671551682764045,-14.304052586705291;-8.180780575754886,7.881047382581859,-20.689265150253853;10.191378807658756,-6.933073603698215,8.6176320096671;4.052551903758086,5.252482525423234,-13.663439968147957;-2.934437678291763,0.8229839865142605,-13.179185084626788;-1.8350329705735446,2.983461269923938,-2.3985584429594518;-0.4794607101306235,9.96472895041556,-18.88274170812453;-1.3043344551231544,0.5004374681619908,-7.804248797478316;-5.295363795314929,0.07140244004243235,-3.029568018129151;-5.010987048015407,17.912076314387424,-16.66556784356175;-3.9888781413130854,0.3511162946516383,-6.786776847283818;-1.1287013707651572,-3.318077551216424,-7.813321784861824;-23.309607229924264,17.70523557467866,-5.84750145279744;10.121860043845153,13.496763986476566,-6.087277703787928;-4.825781431224128,4.904081826868416,-8.743477394191153;-0.09422787470152305,-5.630454774050927,-3.885317457131322;
34.257763501771755,-61.098288860245326,-9.882220880229951;29.996344167515293,-4.332086868840569,-15.391838135033572;-8.214470592908118,7.893747949501036,-20.164457925993254;10.23246479791967,-6.926566344633564,9.115320791577886;4.142255306543421,5.702993540560904,-15.834781895862088;-2.9334285067746007,0.8227422402980982,-13.69592576329509;-1.826714906118925,2.9830831203806305,-2.793161385807549;-0.45035432474625725,10.505677218652067,-19.727071313392873;-1.304750766638997,0.5004990695129303,-8.016521344781387;-5.309840491204221,0.07221113677057456,-3.178330421820835;-4.986979240814714,18.164140944893557,-17.372089179269445;-3.9907039314292856,0.35136529958071777,-6.868419808222145;-1.1312011931416053,-3.317758574866199,-7.846040277050383;-23.309607206250256,17.705235556622213,-5.84750144686907;10.099028665685928,13.89523488432772,-6.268006836095271;-4.816699983914735,4.902703323917505,-8.538257945489857;-0.08141288535259361,-5.631291517289096,-3.605320110686055;
34.47754223408024,-61.1461274035808,-10.498172289162149;30.019292981314077,-4.187502162414309,-15.319555843039975;-8.237765858379209,7.902310501364129,-19.803402921020684;10.189195547736565,-6.93347002827876,8.591288662355613;4.1587478004920175,5.51581053165994,-16.69305291108661;-2.9323461048104873,0.822463944826924,-14.266051996951216;-1.8248049233633021,2.9829884532565742,-2.882898348129581;-0.4447259136575946,10.551927551900505,-20.399413346103763;-1.3056340734606515,0.5006258942385787,-8.440758383792025;-5.313700470722386,0.0724321558079164,-3.2174948776239454;-4.963844194729801,18.463421986952387,-17.56713366852878;-4.002890887073974,0.35290904183737154,-7.420787533465706;-1.158657886001417,-3.313895678715276,-8.210017882584888;-23.309607182807433,17.705235538756302,-5.847501440996588;10.112549076484429,14.060488213141587,-5.855950514738673;-4.827238734051231,4.904310960530662,-8.77440827337508;-0.0845685135551636,-5.6310773537981476,-3.6738206981824852;
34.54478832411448,-61.16143451442137,-10.687327697220422;30.16491005988775,-3.2470123888809397,-14.8479678357797;-8.246706217135992,7.905556307372693,-19.664279408517096;10.113896688848222,-6.94438234956647,7.681015647531691;4.1414399543493445,5.503013872840366,-16.145481527069514;-2.930794724981672,0.8220641917291771,-15.047192334669404;-1.8153293662597836,2.982473723318434,-3.33198956283802;-0.43857075080325714,10.716938880353547,-20.124685435803443;-1.3073164926680778,0.5008866822844908,-9.254216870080626;-5.337686678310331,0.07383572459479171,-3.464727705793347;-4.952044622404758,18.60790030245491,-17.724189382720397;-4.028802220623345,0.35655128510458006,-8.596305763378572;-1.2135331555662656,-3.3056142427835167,-8.936758845290182;-23.309607159516936,17.70523552101691,-5.847501435160779;10.071382745252,14.233215906270965,-6.587119270492764;-4.871340888279828,4.911530335006805,-9.767384659470718;-0.10366807202319483,-5.629807711561403,-4.091808379687489;
34.63246990754357,-61.181879390769396,-10.934372368713628;30.19652466664035,-3.037236297544327,-14.742529562791924;-8.322621322491809,7.932057360028524,-18.49321837497812;10.105528805421386,-6.945501032292829,7.579948259508357;4.111110813005168,4.93331402908901,-16.119840232968457;-2.9286413464473777,0.8214561534018175,-16.163870908221103;-1.8030553412314216,2.9816983001687145,-3.912959908039401;-0.4461998280436127,10.536278566623807,-20.25378735559776;-1.3087256664778315,0.5011330102080934,-9.96539128330576;-5.346572634088401,0.0743622636209722,-3.5559399359959105;-4.946648632458981,18.688566354663614,-17.672032057068648;-4.050568841463688,0.35999601305163453,-9.582166278300786;-1.266441057219776,-3.2969504812521846,-9.639378261429782;-23.309607136336197,17.705235503369018,-5.847501429351354;10.088089407331479,14.522696771426443,-6.0034356350863005;-4.88695770266179,4.914259617203274,-10.119181812497054;-0.1073955295324237,-5.6295053925820095,-4.173703147000015;
34.36999574164524,-61.122407746213895,-10.196539259641124;30.163493953190684,-3.2583498369236983,-14.853698992384514;-8.35879057938211,7.944050786842443,-17.938277080318073;10.056699581240238,-6.951740289779439,6.990979838479498;4.0802966083167655,4.628699026794702,-15.63216744798493;-2.9272510443224244,0.8210532864978443,-16.8618738667729;-1.7989318769639924,2.9814098660779624,-4.107674717877842;-0.471327772436518,10.039793672498217,-19.78769065350673;-1.3085037139972187,0.5010875882939775,-9.841116949797996;-5.309098107440204,0.07212265195013978,-3.1705587990507205;-4.992686386728042,18.19605353259941,-16.43233991295658;-4.050285146178199,0.3599188301493882,-9.569360382320603;-1.318192482756936,-3.2877898020090193,-10.32817205864444;-23.309607113240926,17.70523548579228,-5.847501423562482;10.152979242252204,14.772751193939909,-4.434910564149949;-4.890007215425572,4.914792231428059,-10.187331206226418;-0.11099581064174735,-5.629252369897036,-4.252573645444318;
34.514281599718124,-61.154696364376434,-10.601518031575068;30.10755469165483,-3.624059651301539,-15.037256892329363;-8.444190985126351,7.970788044316924,-16.63413847008612;10.000626191267056,-6.958409151817976,6.31557969791136;4.080253088221619,4.726263037009192,-15.463021765125971;-2.9249084011452418,0.8203089874491085,-18.087541690700316;-1.7960254189086235,2.9811967496138876,-4.247176844885502;-0.4754666105802164,10.033654318690793,-19.049903519663957;-1.3109361518730098,0.5015358828233434,-11.031331141639107;-5.33462637955444,0.07356513943442111,-3.432929042053731;-5.0086233381970295,18.10763977183723,-15.301090446777039;-4.077826332327907,0.36482184003970664,-10.82253048592871;-1.4322838145402885,-3.2654022814056214,-11.852041550999033;-23.30960709021654,17.705235468274296,-5.847501417790699;10.165781591873566,13.994524191780286,-4.785852767910617;-4.952309862560531,4.926846680586952,-11.596509721458197;-0.1484692181338697,-5.626112817676191,-5.0748778957146286;
35.58576182582675,-61.435788491433094,-13.653325809291463;30.122871760904193,-3.5285974256555477,-14.989477278467323;-8.537205557096625,7.9977115253323605,-15.22172396264793;9.992595475591491,-6.959264474097241,6.218872220900751;4.131408538699459,5.40319405934398,-15.985462768422758;-2.9231138621886896,0.8197001491726077,-19.03208811151558;-1.7965932236320685,2.9812396193394073,-4.219691253630511;-0.45757900341533664,10.33743029395519,-19.824004572666546;-1.3169781949929058,0.5028723080467905,-13.99735220128892;-5.427812360090593,0.07994404345320527,-4.392246839369211;-5.022608498520047,17.8491427712285,-15.820624718876672;-4.118706471220765,0.37332905732782595,-12.694461761365236;-1.577106634410129,-3.2324239514762336,-13.798762727912042;-23.309607067253964,17.705235450807173,-5.8475014120338615;10.067370769512491,13.139882604254986,-7.495512855901991;-5.049873445856362,4.9489092130239625,-13.817108930573191;-0.20160220458897038,-5.620901660972261,-6.24047617796797;
36.53059375004633,-61.74888530824873,-16.417138244187544;29.95960108343022,-4.568254691137112,-15.510092841958643;-8.582215406947668,8.009768234507929,-14.542485427639242;9.86127370386867,-6.971923917422215,4.641431002712457;4.181925487213923,5.761020607131524,-17.041908090699458;-2.920569936685026,0.8187924131115732,-20.363166819148116;-1.7919452294163463,2.9808907811267313,-4.438536169126646;-0.40214520158071554,11.459077517676839,-20.585677691596587;-1.32523566006117,0.5052481082580688,-18.130251774942842;-5.533036383655354,0.08901014332592971,-5.476728576458761;-4.962532194806451,18.315293185209633,-18.985847083449308;-4.22044176155018,0.4007705631164329,-17.424892425773805;-1.7321186858538973,-3.191285018591781,-15.901057561566809;-23.309607044347285,17.705235433385695,-5.847501406290597;9.802532356667633,12.302605594060097,-13.732759151664983;-5.2155153493281485,4.995741620559365,-17.638690871440463;-0.29818568918332644,-5.608489863477511,-8.368741198831795;
36.58540672778443,-61.76859791193952,-16.578811459419185;30.118091829312323,-3.5634009116664274,-15.007074483809237;-8.698297351172092,8.038396396970866,-12.797619317493018;9.694433052523854,-6.982652830148031,2.6432075903567194;4.089238628760872,3.616229325748278,-17.695073551289127;-2.9165448967785994,0.8172031702135669,-22.514082027297437;-1.7884087754002087,2.980609167178984,-4.607858096211125;-0.4113745213551685,11.092931464664268,-22.06316544862826;-1.3300767591699898,0.5069415882415946,-20.588073302429517;-5.537570470732336,0.08938882295531936,-5.523595291758511;-4.982323016505371,17.812575678301002,-20.916913580419298;-4.312760515075949,0.4337875629209459,-21.82626362045741;-1.8924014674110805,-3.1422144838857973,-18.09835398865661;-23.309607021492564,17.70523541600631,-5.8475014005599935;9.761072005876878,11.92431100576662,-14.882203442451022;-5.389652250712704,5.058392318683149,-21.74707783230313;-0.4426195472041239,-5.583061989114606,-11.574020430355802;
39.5099343655098,-63.25241961517485,-25.815913780962532;30.43309200876318,-1.384725488229118,-13.90849482871722;-8.631431589753033,8.0223300451296,-13.801172338497315;9.47430590103959,-6.987819291264033,0.012899545572674143;4.036459599832399,2.71580649978554,-17.560216526756506;-2.913787380384793,0.8160022063575328,-24.01889214830656;-1.7765741936982564,2.9795970883515293,-5.16829035445935;-0.42663219415721965,10.554694070764043,-23.902314673599978;-1.344555454168792,0.5136184216150798,-28.250509580548687;-5.7202053444241905,0.11065245643757093,-7.412473737922362;-4.987939802899059,17.283285575549307,-24.773859015711558;-4.469930962107386,0.5102407412594943,-29.67761043260289;-2.2980211262586847,-2.9863516670193393,-23.79896912472133;-23.309606998687094,17.70523539866653,-5.847501394841439;9.628923636438165,9.795008904793352,-19.024384852219917;-5.621652245207022,5.165814087570007,-27.42621358318446;-0.629997494399177,-5.53714966450103,-15.789937313290505;
45.470013432146736,-69.49588917064068,-50.03596294955516;31.36178065072299,8.289215715136386,-8.929195694557269;-7.914631938326976,7.764589533064221,-24.920994452115938;9.212397666180436,-6.980326202963956,-3.1150094120712692;4.064745757707077,4.179968717161934,-15.904513127377799;-2.9115166155975514,0.8149781900104612,-25.23545984348066;-1.760008858286185,2.97797072747127,-5.956228870698652;-0.3793895457652945,10.618002672368245,-32.97778098959293;-1.387219616871971,0.5528555037973253,-56.439743475795744;-6.973422680736641,0.43323339362506896,-20.762809016703663;-5.0373880475288635,15.105227942880802,-37.780587058126706;-4.780690884935292,0.7615863720923308,-47.696594642016166;-2.7440092389457664,-2.7581252301263266,-30.375148776565158;-23.309606975928954,17.705235381364535,-5.847501389134495;9.057902482231572,4.170699187519958,-34.25191834671304;-6.074116739403957,5.467073687669211,-39.51804834543954;-0.9766822925201533,-5.412145500585844,-23.851855012675042;
44.377902618263526,-67.82141202764304,-44.60106493383222;31.37715005408807,8.315079750675082,-8.917293180890008;-7.834019127407373,7.728849982996275,-26.20362912306718;9.066282117580405,-6.970431425743748,-4.862236688697187;4.255968697726764,8.130587839780901,-15.593740135826344;-2.9082791046955916,0.8133818141263846,-27.025121418599905;-1.7188861764167822,2.9729450144649556,-7.9168831418200725;-0.22334747672339134,13.660447811707336,-36.426315545056106;-1.3961454237163053,0.5681727319509592,-64.97412091549748;-7.708038354744247,0.7721070674709261,-29.109351128080434;-4.9569342386481345,15.685159342815028,-43.703159500391536;-4.908049134860006,0.9255204244231996,-57.02170095096834;-2.87805150557163,-2.6765102353158188,-32.43481150596815;-23.30960695321676,17.705235364098993,-5.847501383438853;8.789852848531822,1.268979252809114,-41.298230230005004;-6.2514362740040035,5.627154649902609,-44.822363196595695;-1.094782422337781,-5.356605744186962,-26.704848405647137;
44.10675360304999,-67.45015698221198,-43.34082473948579;31.21943054374274,5.990885531009137,-10.12495773273409;-8.07404882544027,7.838385609452247,-22.36334070873492;9.2078056391136,-6.980508546955731,-3.1695821534886033;4.408924520770225,11.445025351622593,-15.534452276400565;-2.898397813176189,0.807710842758953,-32.668691076309145;-1.6504386851324797,2.961432988512183,-11.200074742809132;-0.029544566995287402,17.492557506635375,-39.9971581487309;-1.4000391276687438,0.5773788007414707,-69.77281448927751;-8.077116038695745,0.9974755309625725,-33.56893409521162;-4.882769287734313,16.337286262555615,-48.28555057621947;-4.937107846137956,0.9716609495264702,-59.46667882827153;-2.8994212338997825,-2.663035083594282,-32.76619449396664;-23.309606930549467,17.70523534686891,-5.847501377754288;8.78806791969969,4.0054156574109925,-41.4228947452207;-6.363461185435055,5.74632058244921,-48.45123441372614;-1.1928730671339054,-5.304840005430231,-29.128704898448873;
44.19855382104394,-67.57139591864897,-43.75893041163408;31.120037239971882,4.783565873282374,-10.749919105602375;-8.130933899111184,7.861643021372164,-21.46829188936031;9.166102785645545,-6.977946829197025,-3.6679868350308586;4.453050738030439,11.455192694827037,-16.974342031800788;-2.8981821222707635,0.8075971155717807,-32.77600855817343;-1.6440583780255027,2.96017035799789,-11.50602147481919;-0.06042388335489007,17.10706554378115,-37.07930171421883;-1.4010291734595695,0.5801740397883907,-71.19663306201113;-8.355206445294764,1.197113548195441,-37.09924211851234;-4.8640696797400995,16.873730632200676,-45.385225209385084;-4.950318295537111,0.9949102994786586,-60.666784780994305;-2.8380959009374287,-2.7018427716462012,-31.8134419829598;-23.309606907926277,17.705235329673485,-5.847501372080622;8.814368505941395,7.836884691618132,-39.70768873993621;-6.427165992487213,5.821505280666637,-50.636875642825;-1.1645281611813152,-5.320356612716668,-28.422098562183194;
43.17137125872292,-66.31270366732392,-39.2694605298342;31.065885989636044,4.176254087546709,-11.063553811150658;-8.103902086511534,7.8508374071826,-21.891831712099282;8.89798634220335,-6.9528899835648685,-6.879608496021977;4.247096002069191,5.974441120179989,-18.840531096447698;-2.898987337970514,0.8080807557620633,-32.3321445335051;-1.6336547724683295,2.9579946864045237,-12.01058874848373;-0.12034085794414712,15.971667615580358,-35.51523294865171;-1.40220980177245,0.5838265597524684,-73.04154853017515;-8.673918003619685,1.4597503106888547,-41.35890516090403;-4.750943978084644,18.854972861555137,-41.18586216540236;-4.994522369881233,1.0812110543671307,-65.01293808054604;-2.8550787194652445,-2.69133135458077,-32.075989473372616;-23.30960688534659,17.70523531251211,-5.847501366417725;8.805855033541324,10.132134525665267,-38.74523016830902;-6.520328121181095,5.943184051855417,-54.03608039258184;-1.250100966470129,-5.271868672163875,-30.57273870892044;
42.669261280815206,-65.7722139890561,-37.21535169758895;30.990174196707578,3.3800336709406604,-11.473973443482944;-7.8341959139530335,7.728946234788713,-26.2002864955098;8.486901109626627,-6.884053588571406,-11.84638504299161;4.0678675812470715,2.080699925505857,-19.762150561164034;-2.902888053090795,0.8104533022233068,-30.065685576333472;-1.631401708477474,2.9575107319404044,-12.120316988635771;-0.22787537188537046,14.11593030608207,-30.93976126179117;-1.4018997620828788,0.5827979144016714,-72.5248590942012;-8.950904834412468,1.7242234007974482,-45.3086335740803;-4.709078856378766,19.527093980574993,-40.117540595092535;-4.997115850283034,1.0866404517923884,-65.28323245462629;-2.8967487673764607,-2.664852398156013,-32.72410837889564;-23.30960686280988,17.705235295384256,-5.8475013607654915;8.724776287013665,12.901165988109955,-38.89929625273927;-6.51924471153812,5.9412981833200025,-53.98796203027173;-1.2812770735821266,-5.253227564811973,-31.366418906339465;
42.829635004772406,-65.94047560627668,-37.8634920175819;30.90444571976056,2.5346748463126367,-11.908699015398167;-7.481674183912597,7.530690592517748,-32.08352391850562;8.13954435336725,-6.796845084580135,-16.108877520738346;4.033038430019492,1.054790613861866,-20.50766775030704;-2.904489748982807,0.8113781927915042,-29.139774184290935;-1.6230161525416564,2.9556890411095917,-12.52392062986828;-0.30340616633451534,12.907714140114525,-26.90331692278661;-1.4009814701757215,0.5800525140079948,-71.13702554948387;-9.036707946804665,1.8138173851864257,-46.58808513777679;-4.667157332399737,20.069014226940265,-40.347032243500834;-4.971927404198866,1.0348117453064447,-62.70097566313489;-2.920642186866541,-2.6493707170754113,-33.09735615238992;-23.309606840315773,17.705235278289532,-5.847501355123826;8.878294950301006,13.063207616864062,-34.68450645712313;-6.407081705267323,5.796902365342908,-49.93224186989944;-1.2179831440869502,-5.290625745008549,-29.759399489567453;
42.87268950900282,-65.98743572157788,-38.04074249092183;30.550545264206605,-0.4861429010390115,-13.452244599535273;-7.425003067572738,7.494235892451057,-33.062336813856305;8.044181743539413,-6.768057411867193,-17.293343805053716;4.0036533270811105,-0.36811445178035296,-22.24936153766013;-2.9042522431305904,0.811224831121447,-29.294614779190432;-1.6215986510563765,2.95536908072164,-12.593328333340907;-0.34124570271479004,11.7314058092468,-30.249165129102405;-1.3995519301633481,0.576088402049666,-69.10827561576069;-8.882286167920709,1.6551446163618893,-44.30462044503432;-4.750504169505877,19.018205617350134,-39.54829877573734;-4.948067539780486,0.9905997930365273,-60.448774663261325;-2.823293914593452,-2.710998780318337,-31.585461828845748;-23.309606817863916,17.705235261227593,-5.847501349492664;8.77543555217967,14.233312472054376,-36.33191837333873;-6.255881837679643,5.631413238433758,-44.95778748913065;-1.1426140579419723,-5.33206685500765,-27.87879422827037;
42.00762091266068,-65.12443389453782,-34.624970880320845;30.453428764220945,-1.2304946561876307,-13.830329798714335;-7.834095537598303,7.727863262025301,-26.20885750166214;8.181588067682476,-6.808941751629666,-15.588605334178462;3.993566554405515,-1.0665402898720053,-23.281774113032053;-2.90281229667265,0.8103997896488752,-30.117368616999144;-1.6333483938973894,2.9579396259516204,-12.023033732092976;-0.3877652288087151,10.583577601487445,-31.524208151792816;-1.3927002797702446,0.5612802040095212,-61.267203884359745;-8.912158858740696,1.685004283772336,-44.74006492112844;-4.760212987123834,18.79940441456426,-40.44271287522073;-4.883738761083348,0.8888428053724731,-55.05012852844923;-2.6948011254304167,-2.7870430219386693,-29.62601746632316;-23.309606795454002,17.70523524419813,-5.847501343871944;8.772432784718198,15.47778717903548,-35.169492764602325;-6.193628221977689,5.570841062191155,-43.030933981135234;-1.0931291525294407,-5.357659445167787,-26.661701163257472;
42.221164456223896,-65.3272922399443,-35.44973089026374;30.48639823520159,-0.9840918324432701,-13.705385246155842;-8.12966904044511,7.861060645001409,-21.488955473017086;8.242897629108965,-6.8258762563990185,-14.8321515746747;3.930651856889594,-2.05209852431446,-23.1171303547384;-2.9048252101179566,0.8115624817864057,-28.94867667271506;-1.6376078325949939,2.958836642008052,-11.817607756571194;-0.4272316672105618,9.565204133682037,-33.030435292181046;-1.3899944688739316,0.5565993025661922,-58.671649616085915;-9.058841310930205,1.8378167046119478,-46.923750439347636;-4.6429258929490285,19.312863746661268,-52.902866509658324;-4.767588408255398,0.7450153115441127,-46.751256794994156;-2.5161025938306514,-2.8833460454566096,-26.96264326699864;-23.309606773085793,17.705235227200873,-5.847501338261606;8.658630278504681,17.758384816104844,-35.56633704221501;-6.144029982760089,5.525642141384018,-41.54233758938987;-1.0601106621628311,-5.373886093507269,-25.857388878927086;
42.52059817640851,-65.62429967884334,-36.62837449838006;30.279885029318127,-2.4718355149448943,-14.457804889059313;-7.970394665684522,7.793526113941428,-24.00755240917474;8.224829608405708,-6.821010577544488,-15.054750323695721;3.7119976939126356,-5.191829920624202,-22.194033680180144;-2.907336652241856,0.8128834605118036,-27.567817226036397;-1.6392616388840606,2.959180919280024,-11.737798498875021;-0.5247486703855354,7.356607738491643,-33.61666434645046;-1.3905869099823682,0.557570459732354,-59.214203844035545;-9.016132296839952,1.7922550531068115,-46.279555894029464;-4.789791362411999,17.910614402070983,-45.544870097415156;-4.80459947017365,0.7862138607737105,-49.23475340399662;-2.7671217715574774,-2.744757332268707,-30.7249909133993;-23.309606750759063,17.705235210235625,-5.8475013326616025;8.55307783718909,18.56938170764311,-37.35700882044945;-6.0638150236260095,5.457080233721754,-39.20023097530978;-1.0012260231590526,-5.401541586447702,-24.435812192825992;
42.875106449447195,-65.99556507121642,-38.05870208529139;30.017755804364597,-4.194728808760518,-15.322928317187369;-7.706077512853175,7.662566294913368,-28.299529040702403;8.228259658334366,-6.821941423833317,-15.01253280816904;3.8689665466027883,-3.4069439046393146,-23.79093409378512;-2.9072573432443822,0.8128609553158267,-27.59078829284683;-1.658021029060749,2.9629145804266415,-10.833350442536362;-0.5850411912152218,6.15707626400606,-32.28370277066934;-1.3892561753506887,0.5553980630426768,-57.989040978928635;-8.885843485523543,1.6590908747965876,-44.3578130329985;-4.98742708282323,15.791052876922997,-38.26797280693078;-4.7861608851910455,0.7653057134448173,-47.98560585383779;-2.855140784373689,-2.691187341976983,-32.07793556064257;-23.309606728473604,17.70523519330215,-5.847501327071891;8.54772424477798,16.7442056675851,-39.826804624119;-6.02232886440598,5.423829104859632,-38.02032512257839;-0.925933455646687,-5.434336406787712,-22.641433061717155;
38.55579356294821,-62.74494573922388,-22.761177788412088;29.27957925934804,-8.400488178145098,-17.40433338535496;-7.741072030795558,7.681416652009528,-27.721867906159865;8.305126149907776,-6.842028425680968,-14.067259311736755;4.123662859347486,0.3356091211014345,-24.9655183836516;-2.908001572011567,0.8132325899503179,-27.190573900202228;-1.6854346541817278,2.967842153130957,-9.517225271941292;-0.5763450889049511,6.1375162120975935,-34.32828106810205;-1.3594198386051708,0.5233348354668315,-36.803976794618364;-7.327670491156956,0.5856127815216328,-24.73829254849017;-5.119635716874174,14.40019259700881,-32.966759348128875;-4.727820614224353,0.7048864295639804,-44.21708330732123;-2.67990712031301,-2.7947656296051857,-29.406386167016088;-23.309606706229218,17.70523517640027,-5.8475013214924285;9.415668802846696,10.407779336371076,-23.531376529082817;-5.992425936051439,5.400721157154459,-37.18175766970367;-0.8761260908666734,-5.454519169075489,-21.46635935607849;
30.187535238744374,-60.735597830445414,1.0963209957619746;30.10556822365779,-3.626666404003169,-15.03806122011013;-8.351041028473203,7.93812183900662,-18.07234984802108;8.911413955717116,-6.9508205267469405,-6.7230900514048155;4.156695692959257,1.3610088310277395,-24.113092964124835;-2.913375053964818,0.8157877957603484,-24.24863643543189;-1.7185407804533126,2.9728326995528698,-7.934250107299476;-0.5568230047675237,7.0509101496401065,-29.77791020449259;-1.3249723747315763,0.5051800751227735,-18.00848310033041;-5.76394458703496,0.11645309381115942,-7.865088604626841;-5.224086151249667,14.251041441560883,-21.08146946575947;-4.413348383830414,0.48135541877580884,-26.825729386729037;-1.7173787982453363,-3.191938911340741,-15.713480122595055;-23.309606684025734,17.70523515952982,-5.847501315923175;10.26995718893954,9.107239523798686,-5.586457271423534;-5.7633021866834,5.246401962196922,-31.045457470975435;-0.7817911710709823,-5.489176112518633,-19.2699044643194;
30.72205644065815,-60.72599807340314,-0.308073013318376;29.905484733318517,-4.888439550024198,-15.669277931619455;-8.608399440464693,8.016536348029724,-14.147858090687308;9.720459260097108,-6.98098660776449,2.9550045585484503;3.98065656707612,0.6052301045810347,-19.607358254746348;-2.9278961595611634,0.8212294541186222,-16.541592964754155;-1.802103520298729,2.9816068507149973,-3.9583162964091887;-0.586318789946979,7.259088579943369,-21.99140139684099;-1.3162984144668473,0.5027024915442386,-13.64565958464334;-5.285283112906157,0.07103369608810084,-2.9252068941640808;-5.314815915792888,13.302207247354339,-17.558352973850504;-4.2474888141230425,0.40975939409712653,-18.707321910021463;-1.30836894714713,-3.2894410654140827,-10.19839374869306;-23.309606661862983,17.705235142690636,-5.847501310364094;10.251563114639678,11.015248303706343,-4.993059480124536;-5.378126148890742,5.054153957124264,-21.4756917584335;-0.5091217122978952,-5.568377161421712,-13.06171730598531;
30.662690826562127,-60.72505556985188,-0.15065559106571058;28.55887377699176,-11.848996395549564,-19.069624411749025;-8.483340798240414,7.982325975555869,-16.03902924091416;10.01314902153483,-6.9569048980222,6.46640935900192;3.824910025439621,-0.014382759197700157,-15.634631421285418;-2.9295219981220724,0.8217121450243305,-15.695833277586129;-1.8414500832289848,2.983713710130826,-2.0937301780452575;-0.5817844762929119,7.92059149783167,-17.10543986593367;-1.3183827843038152,0.5032396560598925,-14.703738342766922;-5.0146122122324455,0.06352948817082771,-0.14549421156626963;-5.316766447360322,13.625412372411137,-14.889659649662583;-4.229303638726489,0.40368808745930584,-17.845816052789438;-1.3099365783444283,-3.28923762066046,-10.218435365094937;-23.309606639740807,17.705235125882574,-5.847501304815148;10.259572995444525,14.25067244988902,-2.6072127418013302;-5.220440756398591,4.997424693289403,-17.754826241923904;-0.3552855064160522,-5.59938743359362,-9.63303753186496;
31.833077109484012,-60.765654877235704,-3.2598126401470946;27.197256287570518,-17.453213779133105,-21.695421857285325;-8.487647850531612,7.98375192168252,-15.972403365193644;10.05030590066399,-6.952575739849554,6.913820717254151;3.8126017080068784,-0.46489841064954507,-16.08170232922976;-2.9260865644078855,0.8206680551166897,-17.505912811205654;-1.8630999700267175,2.9843121387425797,-1.069080129758932;-0.5999907266745683,7.607707266781317,-16.33787349781203;-1.3205087415210108,0.5038051084905609,-15.74163910050868;-4.894854861942131,0.06451849793601583,1.0830442873578825;-5.360683879352149,13.0937034283621,-13.72191737439834;-4.197324599751313,0.39379212026744603,-16.343875240475338;-1.2473461037267501,-3.3001194746930738,-9.385508416756233;-23.309606617659046,17.70523510910548,-5.847501299276304;10.315647755752456,16.499187499329615,0.4800817256648884;-5.187343215113306,4.986926575620412,-16.98314967769291;-0.2775942791176407,-5.611483968348861,-7.913655494797181;
33.00022384956383,-60.88217840890645,-6.411544102297705;25.81292517198002,-22.25079619880175,-23.835880515692256;-8.1943989264477,7.88617051192421,-20.477901369014784;9.587588255536199,-6.986454474845105,1.3662430899775297;3.7383724880847584,-0.6645740219932144,-14.036901420253544;-2.924852585973041,0.8202999761249093,-18.103705584586677;-1.8655580667000067,2.9843566330541664,-0.9532202857472267;-0.5948650075706607,7.760027967953702,-16.000892396442786;-1.3204258967188416,0.5037789447840841,-15.697099846807305;-4.621421138868792,0.07646469575660342,3.8911883090606345;-5.405054654756326,12.71141549338411,-11.363327026329724;-4.201178355239982,0.394917093266876,-16.524710362928968;-1.2529982128158623,-3.299240822733119,-9.46052631884628;-23.309606595617584,17.705235092359246,-5.8475012937475315;10.440954278646934,17.840380767508954,4.399568710514531;-5.248831642510755,5.006562923741625,-18.41462880386863;-0.30565838404494194,-5.6073958112710525,-8.533924558949353;
33.85032904910622,-61.01741784304974,-8.747594435083968;23.84522548110215,-28.16815222390331,-26.32492073702646;-8.458958504765716,7.975121942936129,-16.40928426319442;9.523212506323835,-6.9876621942544475,0.5972234515556059;3.540042517052452,-1.3345637563209878,-8.896951317625245;-2.925077693202626,0.8203590054911952,-18.010546839800803;-1.8750556514068644,2.9844782767730806,-0.5037243140030707;-0.656122083588549,6.838642643832163,-12.315435105855968;-1.319965077336734,0.5036628525999712,-15.491716608423978;-4.692050714498499,0.07213139520307099,3.1654961102337573;-5.502301877233405,11.515033082165184,-8.651431549583146;-4.194030083446625,0.39279000860129987,-16.188905663732083;-1.2264815858334384,-3.3036193424617295,-9.108181687840993;-23.30960657361625,17.705235075643717,-5.847501288228794;10.515050961369925,13.896858975400614,2.4488634290127997;-5.249645696344128,5.006774561320826,-18.432457091413024;-0.3195960266333646,-5.6052881737997335,-8.841948915487562;
34.57700662268839,-61.16857987342796,-10.77720427571249;23.307813102846687,-29.64251265695554,-26.914447500523462;-8.741663707467081,8.048097059125624,-12.148967362663903;9.69838222845776,-6.982597836126596,2.6907837893357027;3.4853355281275142,-1.6077409372510083,-7.6590015486182494;-2.923268309231142,0.8197549088090401,-18.95367348460443;-1.8752575511808436,2.9844801765154774,-0.4949687472946849;-0.7615612064050619,4.516846290264799,-12.041063805247036;-1.321940559917419,0.5042227149655788,-16.46752701560944;-4.749091482748407,0.06923991121560757,2.5795306597881478;-5.6442339330199705,9.35006458353978,-6.977067067889607;-4.2136642443440415,0.39870140595370585,-17.109230120104726;-1.2060812816417674,-3.3068699011188443,-8.837547274160048;-23.309606551654916,17.705235058958785,-5.847501282720061;10.739013511262645,9.185941802421684,4.255717321947726;-5.2455643671322445,5.0053826076928445,-18.336121275471957;-0.34476846760893487,-5.601264868226318,-9.397505314670724;
35.08913725773158,-61.29608836540789,-12.22867532939279;23.09967328167262,-30.20112279274054,-27.134671844075413;-8.670162464821852,8.031781525452189,-13.218687895285175;9.377962909418912,-6.986244155702433,-1.137175796745185;3.5345612986277026,-1.7781833888728384,-9.562605128124547;-2.922141811394465,0.819371761700032,-19.528929526817954;-1.89684349444393,2.984464524118201,0.5281951602301156;-0.7729692330936507,4.193263466037848,-12.60170800286603;-1.3250584681800752,0.5051991894944147,-18.04865688723479;-4.763733150043356,0.06863247286917862,2.4291525154039917;-5.696661291881397,8.510527305540178,-6.3843528748816905;-4.275931731349128,0.419701944317766,-20.059364124727168;-1.242525222866011,-3.301018734553947,-9.32133517626894;-23.309606529733433,17.705235042304324,-5.847501277221301;10.868042070883005,7.452953486217247,6.265027721039772;-5.324925304597604,5.033254168884692,-20.202418659528288;-0.4267629579982817,-5.586337331344625,-11.219537268793994;
36.08196762792989,-61.59344128146303,-15.097034171606452;23.378836749764325,-29.450955669343468,-26.838672485281002;-8.605811182281043,8.015991607857446,-14.185890919972305;8.943197888655224,-6.9580754758734775,-6.337063488881631;3.5376964410817457,-1.3012461048521702,-8.75869038129203;-2.9206537416636023,0.8188149448145142,-20.335194408160163;-1.9037958027570632,2.984389028950485,0.8548386597779682;-0.7682689547935637,4.445424644926916,-11.390138850933187;-1.3254820609673572,0.5053281952674792,-18.24815848438189;-4.852185046098902,0.06552342588159926,1.521463698568363;-5.7285777203218435,8.235177589905067,-4.462148985127239;-4.310203894439418,0.4328071793364865,-21.706815519793402;-1.26596569702302,-3.2970928668473496,-9.633048131938459;-23.309606507851694,17.705235025680214,-5.84750127173248;10.972122237218292,6.758218851467071,8.230946554216917;-5.389201025130189,5.0580259533131535,-21.733142061694792;-0.464907784239017,-5.578508719813184,-12.070295438924452;
37.67769064209132,-62.222209390090626,-19.888480094453254;24.333397871972917,-26.781002778925817,-25.75850078305978;-8.687806071271579,8.035972254012554,-12.954517666141102;8.840626530951475,-6.945558830509929,-7.568911317270429;3.452743379512441,-2.241003717155554,-7.820272683828414;-2.912764092227079,0.8155610998952844,-24.537514461221328;-1.8653377765246915,2.98433760577983,-0.9625114461530213;-0.807605498548639,3.740961065309436,-9.898951028934334;-1.3253156501558567,0.5052806292974503,-18.173815825764336;-4.926378503490654,0.06403931261901497,0.7595568674401338;-5.748458070792808,8.07085418519342,-3.2124506475386454;-4.331822570927144,0.4416758251491383,-22.755572344932283;-1.3128924004371973,-3.2888223287888123,-10.257449233854079;-23.30960648600955,17.70523500908635,-5.8475012662535715;11.020970498087204,6.576573914490426,9.209362147780027;-5.387236288489971,5.057277750224643,-21.68621351033108;-0.4374315663458437,-5.584239804859091,-11.457613708332392;
38.709433932431615,-62.738906108800705,-23.132653314711053;24.64182653110947,-25.881823474332833,-25.38594436731021;-8.7754075532844,8.055289408753938,-11.645825385557206;8.639843500163009,-6.914033874297154,-9.990584793986173;3.419756950515551,-2.6436582958997192,-7.536614608486747;-2.894165645352576,0.8048244184416258,-35.21862033279028;-1.7675790137397014,2.9786914669537503,-5.596541709507335;-0.7917825422067735,4.200031698857924,-9.0489882266329;-1.3305696351981278,0.5071442345404306,-20.849199812654817;-5.086430939908709,0.06421077133068137,-0.8831509313002748;-5.707606991331273,8.881638640976256,-2.735429250744195;-4.374391800823692,0.46051254116640666,-24.843862997600368;-1.455638084921036,-3.2605066377991276,-12.164361945496053;-23.309606464206862,17.70523499252263,-5.847501260784541;10.973068073403116,6.641892380323227,8.215834601947666;-5.357217972739299,5.045569502716514,-20.972039528201492;-0.3872050485330465,-5.593883275902637,-10.339836985570594;
37.53317569322826,-62.15631368235285,-19.44330128532191;24.762708581843288,-25.523166449934656,-25.235975319027204;-8.75246994188553,8.05039846179619,-11.988470922476917;8.411330270774739,-6.86766521269485,-12.76713611518272;3.4004812619956604,-2.8252818321748707,-7.269640556959999;-2.888547043208912,0.8006353612319957,-38.676413571537395;-1.693058521157128,2.969093391572794,-9.150979773486519;-0.7562139993174308,4.911904867999736,-9.773117640157617;-1.335621600038186,0.5091993452199428,-23.46800046328182;-5.172408128573862,0.06617015624487421,-1.7655763241600848;-5.6836319597959815,9.092436978588928,-4.126284016126391;-4.3962595819244275,0.47089961437525657,-25.92823364303502;-1.4915493916683613,-3.2525128748810745,-12.647100436744797;-23.30960644244353,17.705234975988937,-5.847501255325361;10.903743674518694,7.1475949860831545,6.9108996809021175;-5.390223801053407,5.058615117937365,-21.7605399422513;-0.38906712605288807,-5.593481076446766,-10.3819186310085;
37.257666982474895,-62.03671749563126,-18.602159902161407;25.364974095892418,-23.68648786435744,-24.45774553825496;-8.729229900136016,8.045302125805451,-12.335808721283986;8.394570557074818,-6.863772312219687,-12.971846735408064;3.390400288580027,-2.8754911118802107,-7.043849279014779;-2.886893338509817,0.7992734128148582,-39.74187445793526;-1.65918580245682,2.9631340635295693,-10.779211673216277;-0.7330727440453728,5.430580955504551,-9.763119730912313;-1.3381452207197033,0.510325239805354,-24.7904136017163;-5.249300505680552,0.06907041549176596,-2.5557255722335217;-5.6608464028226635,9.397805936384362,-4.752927014491771;-4.403806837049852,0.47462746429115626,-26.30668904041087;-1.5416928189348067,-3.240953160706487,-13.321663915938409;-23.309606420719415,17.705234959485168,-5.847501249876001;10.851812656319733,7.632970343210873,5.984693709359366;-5.412835971196308,5.067851244363968,-22.303385777723918;-0.37637517431509926,-5.595750074986062,-10.100411313158542;
37.43534573419718,-62.11313902436053,-19.143763436833975;26.43612956067509,-20.172278957594145,-22.921119501311956;-8.569642567713098,8.005878649539385,-14.734168654401389;8.283103119050548,-6.836052343770591,-14.33872769890991;3.4611907505454065,-3.214563558531589,-9.973723155485455;-2.8803559495391937,0.7932899666616109,-44.143145875245736;-1.6056657080062022,2.9515400709236186,-13.36627857023323;-0.7443690441734434,5.18190934990486,-9.736537776309273;-1.3416031963083712,0.5120157540651271,-26.65570363164296;-5.3954035238623375,0.07767078068944477,-4.05842132385458;-5.663803875387146,9.387751403944748,-4.480948342297914;-4.423453065883692,0.48460958459812625,-27.296854405087682;-1.6642626082591925,-3.2099931213906743,-14.978066113622926;-23.309606399034397,17.705234943011213,-5.847501244436428;10.843124358315169,7.233995109286072,5.667040607872954;-5.4417265235335055,5.079992423333961,-22.998717237074857;-0.3763057793609846,-5.595756895944162,-10.098664479537375;
37.70333390938487,-62.234073405713545,-19.968174153286284;27.079352685974936,-17.891354770581962,-21.89533393743079;-8.02099851419522,7.814149007640844,-23.212222415613496;7.874404674006034,-6.710604009742677,-19.4238989680443;3.7497177552394314,-3.236375063129732,-19.43608773986431;-2.862465055251435,0.77094976384192,-58.346407750673094;-1.4861126501833124,2.9165506633423406,-19.262161697628922;-0.7281276477370957,5.341242350420059,-11.427023466457229;-1.3511539562706054,0.5173721488937475,-31.912113655393018;-5.7793214672598525,0.11885738269973112,-8.026171225295217;-5.64768767816959,9.600634721946935,-4.935253402505902;-4.483211377543106,0.5176798595429846,-30.361484808789108;-1.7938335201167868,-3.173187383556771,-16.743814640801624;-23.309606377388338,17.705234926566977,-5.847501239006614;10.858576816237036,6.048058914661322,5.650772016819829;-5.49650788602118,5.104163217292555,-24.328495409665834;-0.42113321508047685,-5.5873854268953735,-11.09489480206061;
39.51314011582342,-63.21371939053053,-25.76443101362037;27.383547815949818,-16.750232024968277,-21.37309653955255;-7.57121407145899,7.585765956167105,-30.555926502014326;7.566258425115942,-6.589351414662839,-23.357849148770836;4.204545496029377,-1.7910734329154165,-32.19964165504232;-2.8515957824132103,0.7482821434550944,-70.81642856108627;-1.398518326573136,2.882177430070587,-23.713716376676807;-0.7173020899585356,5.00701531392934,-16.24978553009079;-1.3575375149134565,0.5216248172485122,-35.59474919872233;-6.118902861229113,0.17755199294625917,-11.568936738015193;-5.6583248846330605,9.165225938231604,-6.570691244003566;-4.605150375832984,0.5992280733971846,-36.94731310295239;-1.9192371188450705,-3.1333750958043587,-18.469404861124673;-23.30960635578114,17.70523491015236,-5.847501233586531;10.901394097550156,4.1795653779647095,6.199918081691326;-5.7134742455208265,5.215608536485219,-29.744854864323187;-0.5540795420131164,-5.557646919154451,-14.071823120323234;
40.40651688449438,-63.810570652110194,-28.795161940555296;27.52454670968367,-16.206879700238083,-21.122594195727938;-7.315757497128868,7.420003676548424,-34.98037005306716;7.318740822710176,-6.47302767281653,-26.60408799430595;4.362402185228057,-1.7724164372272577,-38.0913049078531;-2.8512131987606035,0.747060816427557,-71.45659936000811;-1.362535747502723,2.8656749796947354,-25.586384125611282;-0.7301775780623212,4.196174638971026,-20.69872400522039;-1.3658142143267493,0.5281078295660181,-40.6434935081909;-6.60496349903105,0.30068815947731453,-16.728903113870224;-5.6717296837155375,8.743714070361337,-7.76249136753021;-4.73232719986527,0.7087797874756782,-44.482840295989305;-2.060034609147838,-3.0836868162245943,-20.426461067499524;-23.309606334212646,17.70523489376726,-5.847501228176147;10.977324519851452,2.2164934764575577,7.678228678571726;-5.963939365537918,5.379309247886227,-36.39077911114634;-0.7388981673819095,-5.504107643234874,-18.277718664663652;
39.99585219398981,-63.52352381216558,-27.38206545278324;27.671391165341262,-15.63054479035185,-20.855594284223244;-7.290680697558969,7.4021508272192404,-35.42777852588429;7.176955784656595,-6.398516463429437,-28.504156218300555;4.407966872462411,-0.4732952486931492,-36.92650203297305;-2.8528117335121075,0.7516150829475121,-69.06209093738389;-1.3416433982640865,2.8554139867584443,-26.687887589734082;-0.7432877404476488,3.9614688517428163,-20.17154346247272;-1.3673521466020297,0.5294658053673573,-41.63542951023863;-6.821696437406491,0.37115628072296336,-19.074415786759637;-5.69873332249892,8.333257760930088,-7.281004548502128;-4.766973813833885,0.7443296753213652,-46.71121051433802;-2.134559391791364,-3.0551296953477776,-21.47326310610558;-23.309606312682764,17.70523487741157,-5.847501222775432;10.951866828566544,1.4751193485608711,7.1645883397417975;-6.091370383167363,5.479950648003172,-39.995188535923276;-0.8495784411585814,-5.464794426020643,-20.84472005590326;
40.2971838659882,-63.732237167138095,-28.41570324129573;27.440592325931984,-16.530935995931937,-21.272100843639492;-7.442383480132584,7.505741450840688,-32.75945161164246;7.208015311550602,-6.41534684626455,-28.085096726401932;4.414711765273507,-0.2808006328833449,-36.760547087625795;-2.8544156122716986,0.755647550471347,-66.90999922711345;-1.3416948645488176,2.855468553312029,-26.68231542549118;-0.7595909760851988,3.6249474490759264,-19.90930014285638;-1.367001099263306,0.5291137664056087,-41.380473178631775;-6.9122755534741405,0.4035819304746764,-20.065026585039078;-5.72331761622493,7.872274694230629,-7.361095163108711;-4.774537242871309,0.7524155050985785,-47.206961185436185;-2.1519396334427427,-3.0482971463630237,-21.71799490789824;-23.30960629119138,17.705234861085213,-5.847501217384359;10.931822728143288,1.280373940639934,6.755114818169801;-6.156330372576016,5.536510024013509,-41.905501383233975;-0.9202761095507448,-5.436749980698582,-22.506708356472597;
40.19887055518588,-63.66292779192221,-28.076424391030454;27.542420005285653,-16.13657502999066,-21.09009307200074;-7.42374026278266,7.493622659213156,-33.082518158945135;7.1131208179118115,-6.362818611204395,-29.37128917883447;4.418615738642606,0.048730338624824565,-36.189356059714;-2.853394044430494,0.7530584997670369,-68.29526338117564;-1.3060844435515144,2.836785465914122,-28.585420659348337;-0.7287430680871838,4.3292264546979276,-19.828008974356557;-1.3668816278846334,0.529002001181539,-41.2994418122659;-6.944261322327334,0.4154808624363393,-20.41649082664168;-5.7058206359085135,8.131942757329245,-7.739011871361946;-4.7869797217595424,0.7661076961069662,-48.03694638380913;-2.1786217569227464,-3.037536580215952,-22.095265924084398;-23.30960626973834,17.705234844788073,-5.8475012120029;10.927708690795555,1.9444658297584843,6.639058897632218;-6.201774916614555,5.578517337681637,-43.27902591340229;-0.9521494388662343,-5.423266112283498,-23.26226090524132;
40.337454951573505,-63.76088736934683,-28.55488244325199;27.52813268388691,-16.191833852544075,-21.115604062243314;-7.480452251991545,7.530205151194131,-32.101803244422186;6.9930831550517665,-6.2925009595945385,-31.020450292824417;4.416130761786137,-0.07892718929085363,-36.372366220787704;-2.8529372998349127,0.7519280226762592,-68.89663261537868;-1.2798279690136931,2.8220933132533914,-30.006137450306277;-0.7132356615000451,4.6449230972109845,-20.107930199537055;-1.3661823398816386,0.5284254515043616,-40.87792214207411;-6.9912528746778495,0.43334429801280416,-20.934090220679575;-5.679923574903166,8.612323161763065,-7.661274288123643;-4.799635074860944,0.7804529790291486,-48.89518748526155;-2.1858404389685333,-3.0346376649377302,-22.197070753045573;-23.309606248323565,17.705234828520073,-5.8475012066310255;10.95813943041929,2.3402030848321287,7.276223759180006;-6.254143552767358,5.629526208751485,-44.900712282135075;-0.953525584936133,-5.422685344942077,-23.295421749780377;
40.390166394993045,-63.798644147322776,-28.73776462051925;27.513545440636783,-16.248612351571804,-21.141833996143156;-7.544282461643139,7.569737128245087,-31.01136283954995;6.99216419083433,-6.291951769766424,-31.033380118648417;4.362696888610309,-0.9419940743065526,-36.23187137247794;-2.8533459510487016,0.7529318400887648,-68.36323679498057;-1.2680911941216824,2.815216582606152,-30.65041322736016;-0.7241794779622183,4.341295801514816,-20.612442021038866;-1.3653639332091427,0.5277357249229623,-40.36968367689725;-7.028185446892324,0.447721069991204,-21.341943819140887;-5.694871332365696,8.31205757643877,-7.862073829550347;-4.806898709765602,0.7888375828512566,-49.39160309100035;-2.1837342113762013,-3.035476269654071,-22.167491107779583;-23.3096062269469,17.705234812281105,-5.8475012012687015;10.973201525356455,2.018277366503969,7.596208188403612;-6.307210790785306,5.684358120149285,-46.5945448842498;-0.9474312584391357,-5.425291750365642,-23.15021565640886;
40.577472804536285,-63.935485583252266,-29.391700944757936;27.664492613042142,-15.657145403229638,-20.867938865224023;-7.564405436288984,7.581828421728264,-30.669883809335413;6.884670380183276,-6.2249096230932635,-32.535205219721746;4.365339001496825,-0.9405257808272551,-36.32947016352949;-2.8541811486081614,0.7549804464436097,-67.26857755545598;-1.268565929321344,2.815483123629793,-30.62567227923804;-0.721319257467725,4.375773166098688,-20.866711086727346;-1.3649518903143292,0.5273837711478875,-40.10790159586249;-7.014028162882374,0.44217288653660947,-21.18560346463915;-5.680544439567143,8.508770975971812,-8.258752263656216;-4.800861140397018,0.7818770639250036,-48.97969867329931;-2.1563909114568025,-3.046500357798613,-21.781045988379944;-23.309606205608265,17.705234796071082,-5.847501195915907;10.991658057695329,2.013799641254808,7.985197563066407;-6.2995186971558095,5.676188834012812,-46.34513267682732;-0.9232328140750604,-5.435468495947198,-22.576783011352305;
40.43063983023661,-63.827873105090944,-28.878582427591848;27.519223526035894,-16.22690847853357,-21.13182211611674;-7.629748207495791,7.620062703836506,-29.569935632084473;6.874528278441398,-6.218345074488166,-32.67817382621248;4.349588653102845,-0.9509970845547877,-35.753641394912904;-2.853862247821807,0.754274368635322,-67.64678304822242;-1.254962345672955,2.8073105771231885,-31.375708735406405;-0.7290883458067042,4.234032531294583,-20.585731755072665;-1.365396602978176,0.527787321634695,-40.4076228060245;-7.030833353951514,0.44874020517816304,-21.37092988945057;-5.6915378605597065,8.346707730568369,-8.022720703333547;-4.797963172311303,0.7784966473750786,-48.77864930465175;-2.1525263616495693,-3.048054011575194,-21.72667639439847;-23.309606184307505,17.705234779889913,-5.847501190572605;10.989455026070669,1.709320247107616,7.947442028805305;-6.275503872880847,5.6512280175821585,-45.57653624284791;-0.8808727044510214,-5.452686918350068,-21.577470732575907;
40.37062980494547,-63.78454133339575,-28.670013770079038;27.527528076950595,-16.194869182319557,-21.11705541840957;-7.628562898018839,7.619373153854101,-29.589450725173243;6.894278607582258,-6.231055581319387,-32.39994733681768;4.341716234299126,-1.375255714083779,-36.39526252922808;-2.8543052508019806,0.7553633844146139,-67.06283082307255;-1.260327500088466,2.8105507062982555,-31.080151510875897;-0.725394011477436,4.240829841855816,-21.24533440394635;-1.3651963524139903,0.5275794282288596,-40.25294898461059;-7.009163829581776,0.4402577970022379,-21.131652613935977;-5.707644501341197,8.121555964103806,-7.59636206756965;-4.801641174883898,0.7827426842284342,-49.030662790292;-2.168497628427555,-3.041626970170173,-21.95238300731851;-23.30960616304453,17.705234763737494,-5.847501185238771;11.002660147194348,0.9526963806271098,8.274921004545899;-6.29621541938319,5.6728556921965225,-46.24163214234343;-0.8805734370629662,-5.45281542706178,-21.57076615270591;
40.52203192303924,-63.894495116070644,-29.197650753261684;27.588582237068763,-15.956887299145428,-21.00693289667464;-7.656287033732371,7.6350582568735135,-29.126686437799833;6.915542828370941,-6.244570771635965,-32.10136648045419;4.342439505500369,-1.7032113429443072,-37.16069506982288;-2.8549663408819583,0.7568851078561046,-66.24267507989012;-1.2732419120977105,2.8182463178646477,-30.36769287910016;-0.7480211793153876,3.7160941205131044,-21.36741175685645;-1.3647095667384104,0.5271639228954133,-39.94192619512246;-7.0017615379817695,0.4373717392918567,-21.04966335585361;-5.721349852024955,7.822080035442708,-7.8992681115244245;-4.817958531266585,0.8019757471844837,-50.161381963027516;-2.1770839760815166,-3.0381428723407,-22.073357095474726;-23.309606141819213,17.705234747613744,-5.84750117991438;11.003397872569163,0.2592679706873078,8.368538313557243;-6.376555094590704,5.761279497843008,-48.89157410587726;-0.9122536977652399,-5.43999741993281,-22.317150108515712;
40.52628121775913,-63.8976403978735,-29.212587312784514;27.424387701824042,-16.593813834947923,-21.301145007213933;-7.665273997721141,7.640039763152957,-28.977449780905783;6.9299642412623985,-6.253661909845016,-31.89934632658779;4.334002226281693,-1.984264997833388,-37.4747724800943;-2.8553902036390983,0.7577870462398677,-65.75398761672294;-1.2636494113708783,2.812546555725069,-30.895840209994613;-0.756712359637897,3.4806332588355153,-21.696553475150235;-1.366622887347056,0.5288268970841924,-41.17085059270285;-7.001197001933057,0.4371605677127368,-21.0436141227264;-5.760061553462088,7.004566380493189,-8.48829667903574;-4.828772375118765,0.8151706346542037,-50.92634082077708;-2.1694681466638936,-3.0412130672899993,-21.965998065300653;-23.30960612063145,17.705234731518583,-5.847501174599397;10.97012886006715,-0.48324728696517383,7.784944869665528;-6.4314455059766775,5.826789781900746,-50.78757539797097;-0.951387273208859,-5.423589925019129,-23.24536505988583;
40.41259121270974,-63.81483756237643,-28.81616196454039;27.297747417308706,-17.07654888780401,-21.52299881864895;-7.592533946335657,7.59840060004463,-30.1955779940361;6.92850457999076,-6.252719118771448,-31.91988981112103;4.30350847231665,-2.612009390250928,-37.73805715983484;-2.855622378838716,0.7582938042362849,-65.47855970045967;-1.2379861285908569,2.796732850323386,-32.32210464296243;-0.8594866748714555,1.1461156740239373,-21.651227449789353;-1.36661425682888,0.5288076883116308,-41.15659206175583;-6.941506773516367,0.4144278099396702,-20.385762779584176;-5.836209508601568,5.552903637758877,-8.342525627586411;-4.834220596966372,0.8219217781834514,-51.31462840663532;-2.1255675779522067,-3.0586268760211937,-21.346749205613285;-23.309606099481115,17.705234715451898,-5.847501169293798;10.929792786354295,-1.6309084925193424,7.191661180480573;-6.468079285506655,5.873078763326212,-52.097456032779135;-0.9769984109839392,-5.412426309106708,-23.85520134179884;
40.09772305329388,-63.593108461802785,-27.7302318071354;27.340434532825512,-16.914868101515278,-21.44881946900307;-7.5462955197138895,7.570816460712177,-30.97821132668203;6.9510528368425595,-6.26680034087543,-31.604724162705313;4.306474890547003,-2.9540828514694852,-38.65142622339903;-2.8557799798773145,0.758707514831649,-65.25330524835259;-1.2202160872202912,2.7852728465645327,-33.322136600687486;-0.8771575443044108,0.6296030044755336,-22.58583766468156;-1.3657568573067416,0.5280551969722523,-40.60422248580628;-6.851652142828517,0.3816648716794636,-19.401226577904552;-5.843652044133853,5.325026593287484,-8.807317118084494;-4.831330684587913,0.8183475155938831,-51.109252123486854;-2.0801069643747243,-3.0761781352855104,-20.70767170101813;-23.309606078368102,17.705234699413612,-5.84750116399755;10.924522716018846,-2.0774204438947077,7.201189396483041;-6.4480964537322105,5.847570216145539,-51.378530581575845;-0.9816791025154257,-5.410311588491296,-23.96747887381717;
40.296961130914696,-63.7320858206234,-28.415200723503126;27.237316667826043,-17.304179864711223,-21.627299681263764;-7.559704236442876,7.5788840452425195,-30.75115791077071;7.038137107859756,-6.319457699459571,-30.398370898649233;4.3092638430636665,-3.156512040584632,-39.23928526340902;-2.8562440036605885,0.7596081200337593,-64.76178164987556;-1.2198919712490315,2.78508107459746,-33.33903304230941;-0.8553970364281155,0.9537048415457581,-24.099210599858537;-1.3647154252454134,0.5271842403800067,-39.957261108535384;-6.759869662943506,0.3500271120543703,-18.402235721673506;-5.832340584722204,5.327627055727779,-10.104738201147889;-4.823410112110119,0.8085793081317215,-50.5452457383948;-2.0493262852518406,-3.0876519994946583,-20.276729250622118;-23.30960605729229,17.705234683403642,-5.847501158710632;10.861928644823234,-2.327732473874356,5.957486294907383;-6.433658879155586,5.829497305257048,-50.86519681081012;-0.9675669319166919,-5.416586142532097,-23.630322837475674;
40.52331355310554,-63.89543506872296,-29.20219593586292;27.06949309332525,-17.927542554744537,-21.911778224231334;-7.559198692244234,7.578616505530385,-30.75907295130677;7.221355129967865,-6.422500378961533,-27.905689888063595;4.302681009185766,-3.2651806353209842,-39.238033487395676;-2.8567148564418985,0.7606021229508015,-64.21691192149697;-1.2188636438864529,2.784394727368108,-33.39810105558304;-0.8345058987700136,1.2946491425231765,-25.296141776655272;-1.3644712077587902,0.5269753893319256,-39.80105351578466;-6.6828393617959945,0.3248640464021664,-17.567999440714907;-5.78409280691921,5.838863669508427,-12.723988770121672;-4.8091637236638745,0.7915630386535291,-49.55116893775049;-1.9868385135452846,-3.11021662430122,-19.406067620296998;-23.309606036253573,17.70523466742188,-5.847501153433012;10.723649864239336,-1.771955818625747,2.8983891439411416;-6.402664322434367,5.7919429496518005,-49.78557688940854;-0.9068109478462232,-5.442227156808241,-22.188827215239538;
40.514528223844785,-63.88912497040534,-29.171565967632993;27.078032415837892,-17.89573583284405,-21.897245502200235;-7.560402739206383,7.579391280288604,-30.737720541714783;7.392679307370718,-6.5095686052210695,-25.625484564861736;4.205849636326492,-4.9243123459242355,-39.41994198487537;-2.8572570035448357,0.7617780903301109,-63.569080356425786;-1.2156768523187564,2.782291390269297,-33.57845629380817;-0.8497814027109498,0.8227536987179773,-26.35257274103933;-1.3641391946576706,0.526704069187708,-39.59737443178685;-6.575292940240516,0.29176085145071107,-16.409800666654522;-5.759664493441844,6.416046187926869,-12.12177794952839;-4.801664238714539,0.7827687900294997,-49.03144402603133;-1.9960762896039177,-3.1069307497189653,-19.534367456798805;-23.309606015251838,17.705234651468267,-5.8475011481646595;10.708675171868874,-1.6213721667473227,2.5466463186869888;-6.368778948223659,5.752389192798495,-48.63020649084562;-0.863962705996709,-5.459266943369395,-21.181122976419918;
40.98205442377303,-64.24556885794499,-30.828124720564684;26.989081495541278,-18.22144350952687,-22.045278218915847;-7.607236227749609,7.6070549659848,-29.947689063239363;7.605269589395287,-6.606149927689513,-22.853602298227948;4.280476166458441,-3.8121500309786933,-39.67084953843124;-2.8593849719320814,0.765830576126161,-61.306141478095704;-1.234797554457997,2.7946834139703807,-32.50248148557737;-0.7883041419667975,2.0753866827900156,-27.722251080242785;-1.3694972972459185,0.5314273978941029,-43.03039602073136;-6.703034449062501,0.33137427050782065,-17.786185060130467;-5.7286344330534105,6.574593630249162,-14.790775348604129;-4.825545240680846,0.8112027119486864,-50.697580501653185;-2.0052375324755847,-3.1037191982354218,-19.661588875160877;-23.309605994286954,17.705234635542688,-5.847501142905552;10.619849677743357,-2.077534687391238,0.8163006794784557;-6.431009801803243,5.826178988550642,-50.770951390754156;-0.8866507278330392,-5.450402835559644,-21.71347116531907;
41.60624394345476,-64.7642732666892,-33.111067193181086;27.112906427132113,-17.764808104923308,-21.837360502792844;-7.606213067296476,7.6065042617992225,-29.96423908114302;7.55799019146792,-6.5856698286919295,-23.465228744284573;4.423714755110625,-1.5884083416475598,-40.09107307330041;-2.8610221390305903,0.7687432823385371,-59.651060680457135;-1.2707043257157409,2.816738868549749,-30.50845192933483;-0.7507654373366597,2.9492186839471795,-27.53433514362165;-1.3706578739566122,0.5325281640964827,-43.802664238293325;-6.612462915354996,0.30293354698138986,-16.80930355525716;-5.651427325669542,7.5841404608937,-17.583101944327666;-4.811624088105759,0.7944248901128088,-49.72010801178055;-1.9415131739681575,-3.125954327482492,-18.777286850525712;-23.309605973358835,17.705234619645065,-5.847501137655655;10.430941016754314,-1.3661852514159545,-3.311267495630233;-6.4527135212239415,5.853195093792303,-51.539405837813945;-0.8187797543523013,-5.4763324927873995,-20.125702106568593;
42.30498292425475,-65.4090331493506,-35.77719098057924;27.678651172592712,-15.600312270726223,-20.841460015379273;-7.680328345314992,7.648539328026618,-28.725980468346354;7.516480461437037,-6.567323120896304,-24.00407236645649;4.7320190804036635,4.82166113143845,-38.24743429028616;-2.8595941186634244,0.7661901495639806,-61.10421205267441;-1.2749572121357773,2.819233863955996,-30.275663541187022;-0.6636863738451132,4.91425966341975,-27.511242907105494;-1.3746747690913224,0.53655879680093,-46.533664619282;-6.564500729441615,0.28856977390678384,-16.294205682015292;-5.649925698329838,7.58693139651092,-17.747328666071454;-4.8284708020629115,0.8148048288475911,-50.90609090284263;-1.993224542642707,-3.1080358845512395,-19.493833949679725;-23.309605952467358,17.705234603775317,-5.847501132414948;10.260203261309405,-4.370298968422857,-5.858307457586143;-6.453306186704478,5.853955055976819,-51.56118836549884;-0.7524387475810785,-5.499681983402439,-18.588096166637285;
42.65389470642985,-65.75839848431428,-37.15695373758605;28.059937656810032,-14.048049743195115,-20.115695279768328;-7.7094739755853965,7.664489005370352,-28.242732078703487;7.678700210915501,-6.636540637794581,-21.909772694184092;4.7728918111198055,5.761196882213777,-37.945611333810945;-2.8590202592529548,0.7651966789495388,-61.664621972446824;-1.284075678025095,2.8245142185346084,-29.77683502911956;-0.6647340373012274,4.949021793938267,-26.99341288993598;-1.374561193395644,0.5364008728714447,-46.429751709552356;-6.555024005947378,0.2857709796270853,-16.19203065151109;-5.597095910837652,8.489235307188014,-18.15184633538726;-4.840771732591421,0.8302525869891668,-51.791486079658966;-2.008919311811869,-3.1023974481104766,-19.71273615974294;-23.30960593161241,17.705234587933354,-5.847501127183401;10.277041049933036,-3.5762812085609843,-5.83489404634545;-6.468044747341211,5.8727522004031245,-52.09009262300802;-0.6973193831330702,-5.517561039577429,-17.322712807696742;
43.644679906723155,-66.86752379671212,-41.289755695450225;28.382986362808868,-12.666547351353092,-19.46254819546672;-7.90009521118275,7.761221614282743,-25.133372747936836;7.93939175305921,-6.733751081272327,-18.604102056934323;4.819799329309239,6.581923125382679,-38.16130106893972;-2.859405358861619,0.7658063670650742,-61.32098968466917;-1.3111811427415627,2.8395576350116865,-28.311271939698436;-0.6676572653264299,4.802706915944029,-27.726063516458844;-1.3752723797768158,0.5371662940238724,-46.934985805001155;-6.6528657463376355,0.31537994449284024,-17.24457379901821;-5.512133159040429,9.791585591907271,-19.479435788457224;-4.862663163656222,0.8589486414413868,-53.409005567781726;-2.034024608373813,-3.093314175255048,-20.06300130056774;-23.309605910793888,17.7052345721191,-5.847501121960986;10.30821663938851,-1.4312509955321833,-5.862248797907348;-6.510229168421616,5.928838673115466,-53.6464731779333;-0.6922116841523214,-5.5191378863828815,-17.205630759552804;
43.980252332592165,-67.28583231603369,-42.76987518466049;28.3359377224149,-12.872475101944257,-19.560376678976574;-7.926376145677516,7.77355556991013,-24.710433429738572;8.090257492425309,-6.7822944275058195,-16.720004109570368;4.892514490039465,7.758391437992145,-38.740458374261166;-2.860592526920753,0.767935740338211,-60.11313374371647;-1.3448427542508932,2.85703271704999,-26.517099699708957;-0.6577612732514405,4.971814730200108,-28.211258417158344;-1.3758384590485258,0.5378048552243393,-47.35303772454968;-6.71974645771181,0.33675137606841665,-17.967030601504447;-5.4210820511289395,11.110349955917247,-21.084766405759584;-4.881956448990765,0.8857660472818929,-54.890466756150964;-1.9990751083872933,-3.105932036351371,-19.575675494958883;-23.30960589001167,17.705234556332442,-5.847501116747673;10.331182078313788,0.15497025455458324,-5.690438244160095;-6.613759080127311,6.081949651709261,-57.74570429426852;-0.7074902499960362,-5.514288180371917,-17.555606706636482;
44.049127486860755,-67.37473869240995,-43.07964789359721;28.49710949310851,-12.161328916178167,-19.22196475097099;-7.857188662054569,7.7404975996718335,-25.826329923257212;8.073823367625337,-6.777275279806871,-16.924356344713193;4.935570856866379,9.332099564501402,-37.48929343155241;-2.8592501953254272,0.7655544792426202,-61.46259725344485;-1.3597834386442322,2.8643512165513463,-25.731243311666553;-0.5469636348670522,7.3787205102462075,-28.742851877562856;-1.3821675162661642,0.5452762877309082,-52.05587607494336;-6.945711899737676,0.4161132820165817,-20.432596063578604;-5.402884974278278,11.196580725003596,-22.666325291452047;-4.90318725113676,0.9170809637865779,-56.586836815067414;-2.0077778686824823,-3.102816147276572,-19.696739237105838;-23.309605869265667,17.705234540573333,-5.847501111543437;10.089686042447672,0.4580985560293298,-10.81689447538692;-6.6911408734172895,6.213884157260123,-61.13653131788312;-0.7244220110974784,-5.508846352654352,-17.944692799574856;
44.129968869984225,-67.48105766569253,-43.44692302399777;29.350004220858818,-7.969674198729836,-17.189297524082882;-7.661715918815421,7.638048513292351,-29.036530954741075;8.09565472539061,-6.783843762018321,-16.65339462614058;4.85569919674427,16.36098967420029,-23.67956608477639;-2.854955242607193,0.7568154923320547,-66.27671471827196;-1.3084473315848866,2.8380327388014615,-28.458200510870483;-0.40362819058053157,10.781177764791318,-26.412729592131605;-1.3905397579649514,0.5575592948038867,-59.20851776358039;-7.308158703859755,0.5672484954258286,-24.478082746899755;-5.361709912696336,11.37022554450953,-26.44713228745918;-4.873989560260261,0.8746309810154468,-54.276773373502955;-2.1891983855265558,-3.033032913224846,-22.24579900482753;-23.30960584855574,17.70523452484166,-5.847501106348251;9.431030333919484,-2.3808485723245,-24.53256423011541;-6.498862861663543,5.914907773456865,-53.248939733984095;-0.5928119097360954,-5.547621944551327,-14.945962891567042;
42.86652517472325,-65.98645824776148,-38.02588908967111;30.809753935787388,1.7018150518315682,-12.334887795872726;-8.184750168903262,7.879207447647945,-20.64488140422496;8.379613823588462,-6.859731353799049,-13.15603083871931;4.495184375629391,12.120313959774995,-17.409187761241768;-2.8533287669364604,0.7529032038122404,-68.37772688467027;-1.2802869874102614,2.8223166214654785,-29.983901322360616;-0.4353168554134478,10.120840192388462,-26.121542773125803;-1.389548828607447,0.5559342912705167,-58.293235478826645;-7.4123022562420795,0.6161635132005816,-25.66309333158408;-5.229985289945536,13.54146225465813,-25.959743657411362;-4.830705652459972,0.817930703487162,-51.077316886386974;-2.31845483357291,-2.9778142270236323,-24.08908624023521;-23.309605827881814,17.70523450913735,-5.84750110116209;9.466080072268939,-0.27957928452623815,-24.304404840264116;-6.235098640869868,5.61188630119469,-44.3258615614844;-0.45802107271459497,-5.579726390632275,-11.918066818273775;
41.365594070110475,-64.56028650364513,-32.224560455172686;31.190857045704014,5.6320840660471045,-10.310779075588496;-8.701953988228162,8.039319327222984,-12.74262154638824;8.882539653465837,-6.9506383005938845,-7.065717683992281;4.111950478318353,5.595692028054481,-15.029342963064668;-2.8548446411255295,0.7566004683880583,-66.39491009565845;-1.3212426299665914,2.8448783935640596,-27.772822768517134;-0.44012412180460614,10.20522563943642,-24.39687228829408;-1.3805565478805906,0.5432569859281786,-50.81325796321848;-7.12156942271959,0.4855275828761432,-22.379479830526158;-5.128823709447172,15.167931002828185,-25.309949932036634;-4.69288778672354,0.6717355963210443,-42.05583738637471;-2.1660273570049533,-3.042499251030902,-21.91754237152733;-23.309605807243763,17.705234493460324,-5.8475010959849225;9.516241751294407,4.653929400580496,-23.28107786634177;-6.076696981235639,5.467670353109854,-39.57068248937215;-0.3357952710481614,-5.602664043449474,-9.20011759224722;
39.21260172030627,-63.02818626421842,-24.768525626820104;31.23084942367174,6.142845214371422,-10.046130486675168;-8.34356772907141,7.938858165201279,-18.17278166099541;8.947845244574072,-6.9587256901419385,-6.281318554787033;3.86472853346652,2.0271566811759416,-13.178646457120946;-2.8573080129634865,0.7618180438153772,-63.54582617823107;-1.3385736039952052,2.8538656200950716,-26.84896110250041;-0.42727543326996,10.373716303411518,-25.42056519332769;-1.3720992564777672,0.5339501894793155,-44.77868848094789;-6.907656108947831,0.4019034651675736,-20.014577315060258;-5.0688194422897075,16.066628617911494,-25.209846115123323;-4.665848001854597,0.6477812743519951,-40.43633012972668;-2.0672481864221655,-3.0809757097336594,-20.527183284201826;-23.30960578664146,17.705234477810492,-5.847501090816726;9.691857859627884,8.303550135450582,-18.326011930581636;-6.110326962477547,5.496177156645079,-40.54958603133029;-0.3440842108378932,-5.601294768706259,-9.384564039595759;
34.78899007809374,-61.220869821442896,-11.378219340306558;31.206071115609355,5.832738903683987,-10.206768488619113;-8.431707417004125,7.96691926231616,-16.82458542303545;9.245147160255524,-6.982160260429484,-2.7236100051054697;4.044447456328483,3.5345524558969084,-16.363040209251572;-2.867513217646872,0.7785927594274654,-53.812050840987936;-1.4243587891608926,2.893077351270126,-22.387482997884163;-0.5070781158240801,8.510112679183136,-26.451756098032476;-1.3634383206405138,0.5261363277159982,-39.166579135368124;-6.688938544600358,0.32679224756582687,-17.63386544521063;-5.141516859111616,14.981067905185656,-25.27565405441701;-4.609050765731611,0.6020348105576698,-37.16381608433509;-1.9945146698045617,-3.1075010517510484,-19.512883664787836;-23.309605766074835,17.705234462187768,-5.847501085657469;9.798553130687484,9.790904873428033,-15.308102898435049;-6.160390341618785,5.540338934915747,-42.029879133859055;-0.38196966663547816,-5.594752406974674,-10.223495951763722;
34.43249990791156,-61.136456344928135,-10.372367135337736;30.887727964979486,2.3795582552639205,-11.988269910144124;-8.727778446637672,8.044964490558849,-12.357206173297811;9.8930422314036,-6.96881848470111,5.023198782079633;4.134497728082642,3.073397927427279,-20.170922875076364;-2.8715710827873084,0.7839045981102664,-50.491170083423995;-1.5207181616293957,2.9281891741122843,-17.535226288459036;-0.4907486940932355,8.992180376767132,-25.339085067910343;-1.3640591480310402,0.5266590442425679,-39.562166972578005;-6.719642975701145,0.3367182288553054,-17.965835056084572;-5.067869114784819,15.92563457406174,-26.521159550404693;-4.531154028592175,0.5472229909809245,-32.88887837039691;-1.8813727812215406,-3.1458933011644543,-17.945828663794842;-23.30960574554376,17.705234446592083,-5.847501080507131;9.561248783080924,15.139110326997136,-16.781007724740103;-5.981747807034441,5.392704668850342,-36.88535937594456;-0.30122951231103495,-5.608009499491928,-8.436500479487496;
34.325330066666204,-61.11347392990613,-10.072190111140022;30.86190482592325,2.136079920377865,-12.113264742875756;-8.664639289507711,8.030472217346462,-13.302389741536008;9.993513691751245,-6.959193592341818,6.230035621300692;4.098329647543565,1.7057400575673927,-21.476778375489296;-2.874588070827876,0.7873406641573885,-48.243580425186224;-1.5878404910606876,2.947247506777067,-14.235374873898673;-0.504503432294963,8.563101828855617,-26.491222120258026;-1.3536068743690304,0.5189727924696712,-33.32457079859822;-6.5126404260066355,0.273841257055605,-15.739104204241304;-5.112323753953814,15.214571232997741,-26.966790772690178;-4.4479385615113385,0.49766694429994446,-28.54215115145611;-1.7841494839811323,-3.1761379128401215,-16.61076427293881;-23.309605725048133,17.705234431023346,-5.84750107536568;9.753616973594433,13.626125889024731,-13.832261470828229;-5.720679720033846,5.219440853193605,-29.925930925396376;-0.1815569412651598,-5.623006536596544,-5.80086203352616;
32.30344486906989,-60.804992993743745,-4.524319812384496;31.011208583069784,3.6039223674507284,-11.35850950015354;-8.576385660402693,8.008305028110136,-14.62929001394054;10.012334924603799,-6.957024888892531,6.456623809757018;4.043930007304929,0.8597877153212594,-21.241613351460053;-2.889524987547088,0.8013688746298914,-38.07709729732906;-1.702971987130827,2.9705874655890674,-8.676322965749698;-0.5269554176979296,7.991695113899044,-27.1912783272807;-1.3338609388933886,0.5084714005173898,-22.553696247806304;-5.967108014703288,0.14877667542948714,-9.980680602407492;-5.217893560348892,13.69789852818168,-26.226736002801776;-4.311608752134621,0.43356816829423706,-21.77660416536559;-1.5806719987118236,-3.2314336454556414,-13.84701510859333;-23.30960570458785,17.705234415481474,-5.847501070233092;10.002571244435,11.48756313841975,-9.971285836029525;-5.598037297626719,5.15286679668273,-26.826891590264687;-0.09609844486138369,-5.630298253999041,-3.926334391822758;
30.685683941254606,-60.72528632996349,-0.2105921087727598;31.241762850883113,6.284139320939326,-9.972925314152953;-8.598130076016911,8.013999424502224,-14.301351190264672;10.198587965390587,-6.931850805782363,8.7048686998233;4.020432987879207,1.2785129178452015,-19.66649759919443;-2.900888835373521,0.8092616800910589,-31.211597025556056;-1.7778281564802492,2.9796743410552278,-5.10902600027643;-0.5625006543847867,7.13442063181608,-27.83512516136269;-1.3215156762833165,0.5041108056766685,-16.25765477398462;-5.563838318930974,0.09232298531766092,-5.795029092733804;-5.321349819166012,12.195653101157538,-25.18218792175939;-4.180673983284581,0.38912418376797697,-15.56919787247659;-1.3572298825347788,-3.2804388612595208,-10.84842725765842;-23.309605684162793,17.705234399966386,-5.84750106510934;10.150637900987299,10.734597616110861,-7.276804244880868;-5.4635310247109805,5.089280347527822,-23.52305105887422;-0.037081364726357646,-5.633664393026166,-2.6348558283937944;
29.237059751442363,-60.773283186012925,3.5886695960837542;31.128552525055127,4.885216706590186,-10.69728798913351;-8.610996212466556,8.017300030644341,-14.108096616187291;10.40606655683333,-6.894756897476222,11.227310769613519;3.9575739540943147,1.4792496341003967,-17.211120605617268;-2.9093152532916795,0.8139151195963665,-26.443860062174522;-1.8378116550123493,2.983578017337239,-2.265462676888859;-0.6247423184460352,5.893551908959335,-26.542499705421296;-1.312711662095577,0.5018921379704027,-11.902836427710032;-5.378967149480121,0.0764190169484612,-3.889147366775253;-5.29877760163825,12.506150300530956,-25.584836571873765;-4.118832669899501,0.37341300807614136,-12.705143085764194;-1.2425620367343377,-3.3009387719552405,-9.322416205632402;-23.30960566377287,17.705234384478,-5.8475010599943955;10.093138388483023,10.744873457353822,-8.485621733120306;-5.401659002775883,5.0630548606378465,-22.030543072767486;-0.01573567734795639,-5.6346265908261035,-2.1680810116455476;
28.147383464153567,-60.88194472913004,6.421766968635428;30.696705339400033,0.6826933510629143,-12.857076199692345;-8.551609796716535,8.001699763952573,-15.003586372154981;10.724560453314488,-6.818873553924629,15.14814457245195;3.9221316128124477,2.1604273657276103,-14.8083698127059;-2.9126947225975783,0.8155338835146217,-24.58623020801666;-1.8631193744779813,2.9843273293765433,-1.0683312430419232;-0.6022968128214936,6.477581874096069,-25.77995029015333;-1.3082168876735818,0.5010258554276537,-9.688290903433979;-5.278448219136787,0.07046419707684004,-2.8552966179246635;-5.229586722450727,13.438249124250419,-26.86315683834779;-4.059000292065445,0.3613720504773648,-9.963202406761345;-1.1559469964062532,-3.3142184852768364,-8.173925525408036;-23.30960564341797,17.70523436901624,-5.847501054888235;9.99433765446063,11.909400381601927,-9.880090021033535;-5.331237841999355,5.035641968820383,-20.353195644489446;-0.001493550903887253,-5.635124680647097,-1.8563227458077325;
27.56229126610521,-60.96496661458611,7.938086546871874;30.796122194733424,1.538967986194801,-12.419295592214022;-8.497159573884076,7.986528559927534,-15.827678032071518;11.015680097654188,-6.728454336488672,18.80040470886351;3.8774240969355365,2.238458388683604,-13.212969436861785;-2.916700914403133,0.8172882480133753,-22.410060050940842;-1.8875677124130155,2.9845378332617924,0.08787282627341853;-0.6119082536588794,6.246043506696528,-25.93873007771337;-1.3049807424810294,0.5005241515557637,-8.135489724538786;-5.176447055106981,0.06628483584857214,-1.8067690558804248;-5.172026472673153,14.000929856766955,-29.54749385700228;-4.011438444974319,0.3539353048022694,-7.803915636950483;-1.082486429929825,-3.3241548551074374,-7.202692032626572;-23.309605623098,17.70523435358103,-5.847501049790835;10.068433233793959,13.258745805415426,-7.385738193750896;-5.240193442196805,5.003617474578388,-18.2107505641428;0.004956478972403422,-5.635329407171358,-1.7153396194520614;
27.849230909849467,-60.922151851570746,7.194445502974897;30.764816245237395,1.264413138803425,-12.55979927317267;-8.43914771687112,7.969388559469628,-16.710252341035996;11.169635524315451,-6.672108805684319,20.764631382855008;3.8041036316502317,1.9262117845377804,-11.3978663456404;-2.9198454480908516,0.8185299258604211,-20.73866711821934;-1.9103854187798097,2.984286104285915,1.166941103059143;-0.5897762648482386,6.754727366687643,-25.786942199132678;-1.3026055692637821,0.5002086094918798,-6.976780543005084;-5.11449331265745,0.06467364215771393,-1.1708257842713152;-5.05878588531132,15.669906255713885,-29.858211398499535;-3.9483240036103595,0.3468568648815315,-4.9542595465742565;-0.9984620062465511,-3.333952179388076,-6.094090337020464;-23.309605602812827,17.70523433817228,-5.847501044702165;9.960208317322795,14.413471598415617,-8.79228074403746;-5.2690710428875684,5.013390387069314,-18.8882923674812;-0.034938432262482,-5.633835321789867,-2.5874429686792126;
27.8784761565116,-60.91839425423014,7.118202380307775;30.627540021423023,0.11526076128673335,-13.14640828322197;-8.458473128896486,7.975173417675004,-16.415840195831063;11.179854994873871,-6.668124816074608,20.89593147191724;3.7732067889981242,1.9982811744061566,-10.272287432571108;-2.9212240040474047,0.8190395630354294,-20.013716913486572;-1.9228126957170582,2.9839632399129377,1.7552471949034896;-0.5348550736569814,7.980673724722497,-25.690629729268473;-1.302189286364966,0.5001553109289831,-6.751812977982045;-5.095521046430143,0.06432371424064526,-0.9762957168823148;-4.954670252421358,17.21613193780633,-29.53690887482535;-3.9272918034039366,0.34519916014296176,-4.007332084215008;-0.9640279588148759,-3.337517342175414,-5.640709913204349;-23.30960558256238,17.705234322789913,-5.847501039622199;9.906619414874415,14.90339505685045,-9.527985291650875;-5.316606092082963,5.030302202165583,-20.009298853849764;-0.07091673075920374,-5.631912770221383,-3.3758868241780124;
28.092690687927302,-60.889662118383995,6.562353026294444;30.519854877056396,-0.7299959101310929,-13.576359988851172;-8.505565658809873,7.988884537996357,-15.700564297416953;11.175205684086345,-6.669850050875258,20.836226735871232;3.8256125229412463,3.3615923423708867,-9.560440133836538;-2.922120138215172,0.8193535069140572,-19.553038599838327;-1.9344292389231381,2.983539079165022,2.305848779112372;-0.4637745245196918,9.457713060713255,-26.48924429808771;-1.3017802643853424,0.5001185392598079,-6.583002871392203;-5.115195891921771,0.06470741491393572,-1.1784665552544809;-4.882602792456925,18.372124918544145,-28.245454827064542;-3.9214548945500867,0.3447997458493717,-3.743112484223964;-0.9799521108572169,-3.335907950206157,-5.850318089281275;-23.309605562346544,17.705234307433855,-5.847501034550913;10.011481764175969,15.212744203907814,-7.044150806751338;-5.324197877186395,5.033137450761641,-20.188434674787686;-0.0728121830592629,-5.631768425107692,-3.4173785359130253;
28.346076447041654,-60.858700907345245,5.90446587692553;30.66429546763596,0.42064651440115863,-12.990605611231345;-8.610822147204715,8.017112245674127,-14.111658188732324;11.177120857482995,-6.669074787622703,20.860833419788744;3.8765550974461283,3.08498693750526,-11.687131981538947;-2.9212418127708544,0.8190325932969467,-20.01824254713627;-1.9387739190716615,2.983347614764657,2.508947205159897;-0.4611779439668526,9.403130362548005,-27.51730166519078;-1.3005384026868088,0.4999851698927191,-5.977754261404115;-5.108101971682006,0.0645772003152032,-1.1056703242797923;-4.9053009333675845,18.131231817509843,-27.572985933320012;-3.9226872584123713,0.3448859291279451,-3.798533666026511;-0.9932017193728322,-3.334529665888866,-6.024692798461361;-23.309605542165208,17.70523429210403,-5.84750102948828;10.056503609128564,14.035824106566123,-7.053137892251957;-5.38863000478988,5.05802281351033,-21.722413581247782;-0.0792147413032861,-5.631349861131289,-3.5569035189005938;
28.33312920501464,-60.86050494304878,5.937657296467872;31.071342613522496,4.246643599186678,-11.026998059383919;-8.798929878295068,8.060073121096686,-11.295412166921109;11.179820962086227,-6.668020967473187,20.895576049336846;4.190945634532843,0.13876908165993163,-27.710146506829574;-2.915611110130428,0.8167917353574714,-23.040422642088405;-1.9358268279337552,2.98345942441843,2.371280290732555;-0.5253124428497016,7.746351671559517,-29.792586361862917;-1.3026837800826236,0.5002296998509597,-6.998132006588836;-5.167123292423672,0.06604904256208499,-1.7115241510139452;-5.045809784878381,16.118168864088627,-27.630267338094413;-3.992835209221855,0.35152729326879173,-6.9601782480227445;-1.1173386486020709,-3.319585326979345,-7.663090393640056;-23.309605522018277,17.70523427680034,-5.847501024434275;10.028016437351681,11.508171539980083,-9.418283900986319;-5.533837118250393,5.121510248644026,-25.243025969280495;-0.10513117014691176,-5.629558249083007,-4.125139489234725;
28.437310164869672,-60.848740462225614,5.6669801478185615;31.109112591666094,4.663057967414387,-10.812096953487625;-8.78940344315527,8.058143481589369,-11.437614944063645;11.181190672257848,-6.667435260227596,20.913251103470724;4.063408465155651,-2.1995453695388534,-28.013727827981484;-2.919775778101855,0.8184758728100691,-20.79630864784934;-1.9631624597446962,2.9820016417693433,3.663678626547645;-0.5444794189660066,7.325551866320067,-29.762322671717193;-1.302206477372338,0.5001748010501096,-6.765124912519237;-5.19995559487495,0.06713214576694981,-2.048555462621989;-5.095878129836506,15.430653791979509,-27.2136700081682;-4.040434694143214,0.35822128112815094,-9.117226440086974;-1.2554015057430836,-3.2988329475238545,-9.492987735709338;-23.309605501905647,17.70523426152273,-5.847501019388874;9.955744000983485,11.552430467206431,-10.933419735288933;-5.606198360879689,5.157133504357815,-27.03294159699213;-0.12302127123879136,-5.62817995511573,-4.517817135233354;
29.780402380040414,-60.745560769994896,2.1663115571478624;30.866229973711484,2.17585557587231,-12.092847846799813;-8.910417716679628,8.080783726294134,-9.640528236198582;11.181910280249646,-6.667184801695889,20.922463507664098;3.8238659823131864,1.0592565578377864,-13.608916158884918;-2.9325090029171332,0.8225030305122404,-14.175305839067622;-1.9947758180748771,2.9795555435390804,5.1653329482583885;-0.4966604609168424,8.390900631999646,-29.670496364373545;-1.3030068781916644,0.500277917041594,-7.165827331774299;-5.242701158068603,0.06883336758783087,-2.4877428468399625;-5.096892903927763,15.258817743908487,-28.539212506224835;-4.036390210955806,0.3575737699304494,-8.933555937066775;-1.2930892482466747,-3.2923467373047886,-9.993662265755116;-23.30960548182722,17.70523424627111,-5.8475010143520505;9.826827554237791,10.974605667456817,-14.053512149377958;-5.603630960860596,5.155855445153049,-26.96964419092692;-0.09504457886436118,-5.630223832142257,-3.904774308941988;
32.204553183998996,-60.795575421393444,-4.2581134156164495;30.677860769188868,0.5270753225815596,-12.936417455395047;-9.355041360553638,8.13111892935286,-3.096868877456327;11.182066252327981,-6.667088200133303,20.92448955877964;3.7362611546533144,2.957019601525949,-7.390722672415901;-2.9346789448335397,0.8230295387423936,-13.0720799192212;-1.9957723932472913,2.9794663649508752,5.21318547860105;-0.47495043409177073,8.94186382060043,-28.99674141633531;-1.3058596724984222,0.5006730141996132,-8.556845686378676;-5.311781421712268,0.0722863595436386,-3.1977804409738386;-4.938196448443625,16.587542384335105,-37.53059409580415;-4.216555537921579,0.40034281031045305,-17.254783097541914;-1.6163653366548343,-3.222263571864267,-14.330145222325783;-23.30960546178288,17.70523423104541,-5.847501009323774;8.518387529854198,11.807517121349708,-45.91429968390579;-5.916988791939131,5.345792509556092,-35.11058497966341;-0.12281212217049037,-5.628232549053221,-4.512443712517474;
32.77100923812493,-60.85392224844943,-5.788872402533009;30.80711954446504,1.659498444143268,-12.357066318219436;-9.495971756866174,8.136352873582899,-1.0335199907872532;11.171684135428547,-6.671151864845314,20.791043797558103;3.635420284837169,3.266106801892071,-3.630629105832858;-2.9359577389490887,0.8233232036261362,-12.414775289149816;-1.9879648833968913,2.9801713888609163,4.841531163052432;-0.42136682821982385,9.744166426819405,-32.566234794357804;-1.3275709185566185,0.5064314320485239,-19.38632952321565;-5.748084273482064,0.11624348635878956,-7.7044210982154695;-4.813832047782246,16.923430539247093,-53.03979430112285;-4.569798333882326,0.57436615468651,-35.00797456444515;-1.9154768105471043,-3.134651233724976,-18.416672898532973;-23.309605441772547,17.70523421584554,-5.84750100430403;8.11942504337771,14.2664278918886,-57.030183551974034;-6.182360102023228,5.561243732675813,-42.70351534821237;-0.2382207606437432,-5.616331612161561,-7.048038456210103;
31.386927303912522,-60.740920822741465,-2.068818571928958;31.217122729768022,5.96259377320105,-10.139635458484843;-9.399306020540115,8.133242839900005,-2.448835803844741;11.100523562288853,-6.698040074294119,19.879754390430346;4.2085914491072085,4.461135774721822,-20.290725910686348;-2.9260902736312095,0.8205830731583971,-17.47950880583049;-1.9375858930695957,2.9833130359402302,2.455159035806961;-0.4141146746413946,8.523533672141786,-47.08972376210572;-1.3877269872381135,0.5540154875514579,-57.02615984976853;-7.695176177177079,0.7827738430431382,-29.045194578221675;-4.913347299631626,15.658313705593226,-50.8570627671944;-4.888259705245333,0.9020660965597221,-55.65217349258407;-2.7673604470880107,-2.734767966053539,-30.795700387398888;-23.30960542179611,17.70523420067143,-5.847500999292786;8.26414413098303,12.769989216524849,-53.325231631747556;-6.5444435660464695,5.980717129612433,-55.02378891290256;-0.8291419001233002,-5.469255921557041,-20.390672297371047;
31.803668888189357,-60.76293295576536,-3.180253465917122;30.981239155159763,3.2896370804392383,-11.52048170326362;-9.054918025512432,8.102974087187262,-7.504302717844876;10.939007212186462,-6.754397002783396,17.830567160645927;4.779354541233267,-0.5467587391271824,-53.12439017310463;-2.858314272408573,0.7632814471558914,-62.66808369457648;-1.4442784050501158,2.8976314173038658,-21.429927491819292;-0.5520253852379186,6.6010178687610885,-35.086240846447524;-1.4009964809255941,0.5800952191051397,-71.1529610865299;-8.984035355994862,1.75841282036152,-45.7989506941106;-5.117466548382307,13.774490748890184,-38.79538281101263;-5.080935800805996,1.3331184570362602,-76.96456234281462;-3.6779401984926374,-2.0223949520145847,-46.03229557963424;-23.309605401853453,17.70523418552301,-5.847500994290015;8.544695209848598,10.903865939566652,-45.72015474805172;-6.789345596123296,6.413216456239627,-66.06166232072665;-1.2533950882927323,-5.269570996559985,-30.660269925825624;
33.49214682288543,-60.955655065628775,-7.759060899903577;30.79360603506437,1.519147248560646,-12.429397029956569;-8.86449195276285,8.072763047600562,-10.32040925614078;10.780377629745702,-6.803286631126586,15.842454427057875;4.444393188835345,-0.13723252642689632,-37.60652085345596;-2.8473584521956514,0.7324273408355828,-78.94936501149357;-1.0793304159771464,2.6769237088928874,-41.73419865378368;-0.5288516226340839,6.738847942906397,-38.86452250729148;-1.4064053940071064,0.6033416602803134,-82.63838491507542;-9.254593698612378,2.0617174153023923,-49.98991779574232;-4.959258898095576,15.462432877224368,-45.64946210591861;-5.113059204243886,1.5899056488362553,-88.57536353702513;-3.8890420321998302,-1.786582484742961,-50.18974835280748;-23.309605381944515,17.705234170400196,-5.847500989295699;8.638107000004716,7.432735918227696,-44.89069529022165;-6.96769690595282,6.998278329174584,-79.64086571101443;-1.6380618294568046,-4.991574875227636,-41.05075656224975;
35.88280454077251,-61.52708212373317,-14.514058312357326;30.68241204996891,0.5752622723858245,-12.911615538067874;-8.249731112211713,7.906363681793703,-19.61955365817809;9.816068259401543,-6.974374555771872,4.100702794068451;4.251957893511129,4.755249806707509,-21.10216649368631;-2.854278864479145,0.7552585964047698,-67.11955369161598;-1.1215253522813524,2.7130362182208927,-39.10742826452238;-0.3655342304266975,9.41438976357982,-49.17704990999435;-1.4072170577624896,0.6127304285999376,-87.16674376551282;-9.288936692131253,2.103482465108856,-50.54730609850315;-4.860483621106419,15.883207250058081,-57.69433541841765;-5.105431426784535,1.768224936582988,-96.57529676139009;-3.91189530802492,-1.7589079429826824,-50.66136696306072;-23.309605362069167,17.705234155302914,-5.84750098430981;8.376461385250078,4.467146962965502,-54.19711002786407;-7.007770417826176,7.585468854489925,-92.69772618517442;-1.812058694551736,-4.825895462718183,-46.30616819562324;
36.21863265383534,-61.63839796935995,-15.496419635457736;30.223572420471545,-2.8558574495954296,-14.65127760623034;-7.807490094395764,7.715819528615412,-26.633690759496034;9.132944963529784,-6.975889281279169,-4.064578239806005;4.154830642468079,6.284604481220683,-15.273258371522651;-2.8644959580454623,0.7740803113669008,-56.507739582218086;-1.2287731707411291,2.7903460670191973,-32.85033064555269;-0.28648143550197214,10.91644951022459,-52.01110783781097;-1.4071026392643802,0.6262326607166686,-93.65579494067032;-9.353059577309237,2.1839579256350987,-51.60780595116733;-4.853082073164873,15.716880555558934,-61.50312461375223;-5.1021995757755665,1.7940365210584388,-97.7402948926352;-3.814458829810428,-1.8740575475023025,-48.679990541163;-23.309605342227314,17.70523414023109,-5.8475009793323185;8.230484966299787,4.762546022434288,-59.728225867727716;-7.002698366608187,7.665799569357226,-94.47902900479255;-1.8241649808111298,-4.813030294873448,-46.69192804378033;
36.551910859221806,-61.75728008016217,-16.4814915549144;30.476465007433564,-1.05601160094644,-13.741753594234844;-7.743880879252301,7.682901524124032,-27.675210043421494;9.114437664106294,-6.9744740164932395,-4.285834202167912;4.149082557824504,7.959335773455971,-12.370517586511061;-2.8757279313844375,0.788633780050969,-47.38623410403437;-1.3930800339675922,2.8797587480210103,-23.995232608576547;-0.35051378128127797,9.543276274910284,-51.685437731983896;-1.40733673927738,0.6209767690570009,-91.1292383738164;-9.24032474147421,2.0444701482453125,-49.75914640963239;-4.902942655090089,15.139933737208096,-59.2478789179952;-5.095840918107409,1.8357098650204915,-99.62841272219387;-3.7855238962026503,-1.9067454420556826,-48.10617880820219;-23.30960532241886,17.705234125184646,-5.8475009743632045;8.275520600989065,4.973110589872287,-57.88245021327148;-6.998287225760461,7.716035990501225,-95.59512916731757;-1.861074755580057,-4.773020481703446,-47.882704057887935;
35.97590264706429,-61.557411208587155,-14.785918287080953;30.884901194578973,2.360058583976101,-11.998121257139335;-7.929769695060096,7.774938119826311,-24.657572514827294;9.258995891275118,-6.982925840435593,-2.5580486267748848;4.1967207542221505,6.393176393871152,-16.470948789155777;-2.877378057731248,0.7904184212186712,-46.17507022754923;-1.4451176320935,2.901497768178708,-21.327252772506945;-0.4010700240139451,8.500520373037638,-50.82916986386876;-1.4069766471684608,0.6092221412274892,-85.47696812205601;-9.099442253095138,1.8825704984774574,-47.54678229203846;-4.998175596726586,14.090596025124542,-54.35129091463968;-5.099119015759021,1.8148633358563908,-98.68360448973021;-3.781856450105191,-1.9108420060464826,-48.034477045179976;-23.309605302643703,17.705234110163506,-5.847500969402444;8.456521388000766,4.702148506603017,-51.39628369994899;-6.997735890316275,7.721116135332485,-95.70834823253847;-1.93236364079235,-4.690561549025345,-50.266633965153986;
35.365487803117,-61.37243726575527,-13.020256158910353;31.07891067003121,4.324088925450856,-10.987191261729869;-8.077049331050013,7.839716127211055,-22.315237580441828;9.422909390376075,-6.987654365813562,-0.6005989105364273;4.245228116819566,4.728449909333876,-20.932263845243334;-2.8766017261164216,0.7896201307186479,-46.72044556356711;-1.47630626135503,2.913198664884956,-19.753404139313638;-0.4776110371747502,7.380925406349773,-44.14476354481283;-1.4032252557278497,0.5874538310777868,-74.84784935969108;-8.736963264430866,1.5173228396707001,-42.23883381514622;-5.087020231220696,13.44867387475414,-46.41945098147657;-5.110295979247807,1.5463404623661525,-86.62020323861024;-3.7358991354689257,-1.9610952515721227,-47.140240221000965;-23.309605282901753,17.70523409516759,-5.847500964450012;9.049325342345142,6.684017552832596,-34.03022555516626;-6.996158886968009,7.254973145877278,-85.3678933723276;-1.9304354091664053,-4.692611908798197,-50.2049258040686;
33.75933800268076,-61.001908567463246,-8.497200899628794;31.201729458348876,5.764876445626302,-10.242131521164692;-8.036779433050562,7.822713922238904,-22.952237458891055;9.411785779356936,-6.987447803015832,-0.7334550405145128;3.998709630573731,0.28412877539127845,-20.823178239900553;-2.8784310739623185,0.791492806144633,-45.431438103090876;-1.5041765630688675,2.9228503339681033,-18.3568179008944;-0.5571141166702922,6.7370316614141466,-32.683023961150646;-1.3974535824477905,0.5709861957231541,-66.46204359643745;-8.517889848631508,1.3259497768683262,-39.23878028684124;-5.18138129719188,13.070413386383674,-36.20995978012449;-5.075063931566047,1.3084247089964722,-75.82766681301887;-3.6515817948845752,-2.0496161285309245,-45.53424416123276;-23.309605263192918,17.705234080196846,-5.847500959505883;9.277825651769632,8.547942937841412,-27.66664081317645;-6.8685415741903375,6.614591769785756,-70.85670935871391;-1.7347350294840145,-4.903414838431075,-43.91208422389301;
33.05243732500246,-60.88964509550482,-6.554891710831416;30.99389285691342,3.4223108489737637,-11.45206737168447;-7.954112856635642,7.786202555130862,-24.2672528310433;9.534568402615363,-6.98746356031779,0.7327279931806574;3.9652828860736116,-0.1975384632630086,-20.627955147488457;-2.885113962903149,0.7977753569830356,-40.88777025189715;-1.5353059248039214,2.9327336844524616,-16.8131644747233;-0.5550567778636548,7.851518985539249,-22.856034024559765;-1.386265117020862,0.5508883520314471,-55.384793446687816;-8.173255277986366,1.0641556542652097,-34.77499613078041;-5.301481915221279,13.40819123955113,-18.34400087091148;-4.944388752601968,0.9860956655012676,-60.19066736102244;-3.5235580707885648,-2.1745021713063024,-43.18544755935637;-23.309605243517076,17.705234065251176,-5.847500954570031;9.76244139771272,9.066788000643275,-16.447553542850187;-6.673392696509256,6.1842075802532674,-60.37112011541802;-1.6262832949186175,-5.00185078026081,-40.70941050439789;
32.68271047577237,-60.842911234285815,-5.549073318598428;30.417314135373307,-1.4453312086676,-13.93730435104914;-7.885578967482668,7.754224009674347,-25.367573857513328;9.767889560389603,-6.978706399535124,3.5224433976066303;4.132481516256203,3.7853123808171736,-18.830738739052258;-2.8915267177849606,0.8029333589963853,-36.81843066927311;-1.5722456666392157,2.943251509013102,-14.997540333846745;-0.4664579284496543,10.32231886512854,-18.24381880021091;-1.3567439425839276,0.5211223582584035,-35.15300433309911;-7.069453951416605,0.46580622083079337,-21.80572936134594;-5.190799623221845,15.57275281927306,-14.598078448860287;-4.564527317545903,0.5700333021475976,-34.70428839623353;-2.5195555058837495,-2.8789277029643436,-27.029670065795862;-23.309605223874144,17.705234050330514,-5.847500949642435;10.185050241992572,13.050858110175813,-5.072399578266655;-6.171858323205748,5.550847109591941,-42.3745069099208;-1.082986596579988,-5.362156061655352,-26.419582127138703;
32.66350124945653,-60.840836886304956,-5.497039369177617;29.57971420126675,-6.790876996286905,-16.613543853594102;-7.969416222277626,7.793058041817997,-24.023867508200134;9.80909215478103,-6.975942192487243,4.016010059957164;4.202063098757232,5.326665446057171,-18.44946059615107;-2.8980553603984,0.8074902791140596,-32.86744339572063;-1.627376264088501,2.9566422877191116,-12.312258454462023;-0.3856385574330833,11.792128081685497,-20.819927082678536;-1.3421354750626815,0.5122558141115926,-26.92335436877395;-6.442859872314349,0.2542725134473671,-14.993556589059272;-5.088542037490976,16.700258926182954,-17.5594591819995;-4.433587960846203,0.4899370742459844,-27.8114174351939;-1.9840649531988224,-3.1110795536520524,-19.36781162250619;-23.309605204264034,17.70523403543479,-5.8475009447230715;10.312246820806857,15.684868537040494,-0.32509512106955274;-5.907322264036976,5.3383264237783115,-34.83816841761829;-0.8181473054722328,-5.476502480911632,-20.110603418951495;
33.35740344278381,-60.93540605231856,-7.390593339990308;29.80249836877096,-5.5141514089195125,-15.981173419484046;-8.077945272521664,7.840005465863758,-22.30225916443674;9.96544894422092,-6.962146005365859,5.8925583026362895;4.321622866110574,5.728760363201789,-21.759485953648245;-2.905838530444395,0.8120930977954884,-28.39418395867703;-1.685977736453852,2.9679136125026218,-9.489770325957371;-0.357801434356022,12.144419588385611,-23.086618494667576;-1.3356499275506546,0.5092380793780932,-23.49508278307704;-6.167509533154948,0.18811580641169656,-12.080162880639302;-5.028189642107704,17.27282643188359,-19.9924047348166;-4.375342743397102,0.4611590598415551,-24.893087256154647;-1.8478015641296555,-3.156303881808244,-17.485253064457638;-23.309605184686646,17.70523402056393,-5.847500939811912;10.14745264933368,15.665002839981542,-3.788568652000791;-5.735016631276061,5.2277752094254595,-30.292502569882245;-0.7001860830786681,-5.516571311499158,-17.38890958058971;
34.11052321678687,-61.06822039780437,-9.471678317338498;30.007288208708395,-4.247294150699454,-15.348575871841657;-8.278184247781715,7.916542805054439,-19.179693285190314;10.09511157264768,-6.946783696927682,7.454108305011598;4.280709673515975,4.338569620078406,-22.821608696295495;-2.9137101890948913,0.8159811218636752,-24.045393491138494;-1.7386262669747716,2.975560110777826,-6.973839521491126;-0.4203324447249366,10.670400353182629,-24.09951163943458;-1.3281952825188146,0.5062570240152529,-19.620951598885206;-5.830724618342238,0.12606976717778995,-8.559278580178473;-5.122437787340741,15.91487478814661,-19.95331644355468;-4.274971901756922,0.4193704416857523,-20.013611044407245;-1.6531810387366794,-3.2130404604843985,-14.827477436688604;-23.30960516514188,17.70523400571785,-5.847500934908936;10.219812834736347,13.986815223895274,-3.658218129687052;-5.60110410288658,5.15437666183493,-26.90213563408096;-0.6025050221278058,-5.545126390936534,-15.165399679570461;
34.5060658989954,-61.15264822927096,-10.578410782107518;30.5990044975969,-0.1090440457833246,-13.260523842229095;-8.376314033265208,7.9496620444269706,-17.66965746454347;10.184030188832141,-6.934131696726853,8.528551756650668;4.245434785495656,4.165133823275511,-21.935129584617428;-2.916129834864731,0.8170461367036308,-22.7200585221048;-1.750102527945195,2.976909810786088,-6.4269057037851915;-0.47356539471725795,9.49122727278295,-24.238004965821176;-1.3226371157136139,0.5044372753792354,-16.825071568817183;-5.563697215753515,0.09215941362512026,-5.79342828422037;-5.178925743724184,14.98414097799125,-20.697523663321785;-4.232499867553209,0.4046940428446568,-17.99700740306129;-1.5563585403495641,-3.237490487183785,-13.518736550166425;-23.30960514562964,17.705233990896488,-5.847500930014116;10.15809936044676,11.990660089720572,-6.364688077012712;-5.601165772461227,5.154368151286118,-26.904021470023956;-0.5610672675756748,-5.555994570484491,-14.228134450038493;
34.22643793358043,-61.091808995148895,-9.79457382178869;29.970632871622566,-4.493535715081244,-15.472577883794154;-8.638825054002691,8.024141502626685,-13.690249467911801;10.33870201370474,-6.9079263055058515,10.405804318641206;4.205562925571659,3.402441177961021,-21.963051776910657;-2.9152825101434914,0.8166664031995637,-23.201946082887364;-1.750454464755041,2.9769388877778407,-6.41131070591644;-0.4500521097811862,9.961020360210043,-24.636739395557896;-1.3217215907227753,0.5041544304520355,-16.34668059943812;-5.463773071841228,0.0828867177687167,-4.762839333744502;-5.115510735996643,15.875332057159811,-21.108958838428908;-4.21038318151014,0.3976900309208794,-16.95502938925776;-1.4758873907163998,-3.2561035791056727,-12.435704190625296;-23.309605126149822,17.70523397609978,-5.847500925127434;10.161668769258311,13.134393485897771,-5.512251472581161;-5.465098634965512,5.0900703311739255,-23.562813666837236;-0.487918034691184,-5.573422217304122,-12.585881076577078;
33.720176117595834,-60.99411677461519,-8.387691270437106;30.572824484372518,-0.30045730209991195,-13.357467477885965;-8.735131910016124,8.046678655779758,-12.247048339701546;10.442536045491249,-6.887342098886518,11.672712994204991;4.243356467251638,3.5669497090293927,-22.94454625315302;-2.9151551630456196,0.816612579441412,-23.26917915694126;-1.7568544826208856,2.977632198038006,-6.107375207574256;-0.41642448215059935,10.619876517733616,-25.332114593839112;-1.3180770080370436,0.5031567473137306,-14.54510814462986;-5.363555180548916,0.07541603838836797,-3.7305004714079093;-5.063947975179456,16.548000855186302,-21.76493163755308;-4.177350222217412,0.388062192997989,-15.410075032519284;-1.4000607788607973,-3.272115555964269,-11.420565407461105;-23.30960510670235,17.705233961327632,-5.84750092024886;10.13319918610994,13.777337052501377,-5.637716240572617;-5.2981499074648015,5.023704955093421,-19.573698846393896;-0.3800569358723847,-5.595099531451092,-10.181620337381194;
32.12839209094947,-60.78752855790251,-4.051245636495059;31.371256873497966,8.231207446985893,-8.960902314097286;-8.681335281469416,8.034419190227492,-13.05170242435694;10.468168011721163,-6.881912848958241,11.986442524278976;4.262985560561824,3.8206077030411327,-23.15137898383209;-2.917164369930912,0.8174509936050763,-22.194777579327837;-1.7722377396905769,2.979179781252729,-5.37512389823314;-0.43098783258878576,10.19146515138684,-26.348071196790563;-1.3166914191201524,0.5028090684156741,-13.865045461812404;-5.332657793179718,0.07347289258124268,-3.412750565871832;-5.080983175722922,16.22397525724326,-22.40534132194467;-4.172768457134934,0.38681363401376595,-15.197799656692066;-1.4161324427691666,-3.2689061923034415,-11.63494823530227;-23.30960508728712,17.705233946579984,-5.847500915378378;10.14024958930756,13.457044334212826,-5.728963808026833;-5.238375119968511,5.003151089696711,-18.170437600912713;-0.32909175831509063,-5.603823600285976,-9.051640713467602;
31.130692442243838,-60.73169000834194,-1.3874567297914542;31.38239647452634,8.382138221324006,-8.882518469046264;-8.498449403915545,7.986796110101983,-15.808375449372557;10.523889134055171,-6.869445370355377,12.669930325154812;4.293060019497269,2.3150803494807617,-27.000701633152218;-2.9144472825018437,0.8163054232324661,-23.651202184380658;-1.7676838171037141,2.97874489960511,-5.5902106836499925;-0.4815276248203269,8.62582941319031,-30.59274819377182;-1.3182301123695621,0.5032008534128913,-14.629486544121056;-5.382091689619525,0.07666609899435872,-3.921396764076034;-5.178843434949096,14.451012315871154,-24.997314522992472;-4.2360597675486975,0.4058350107904446,-18.1633333986936;-1.544007892839188,-3.240540003990945,-13.35153590749492;-23.309605067904045,17.705233931856775,-5.847500910515959;10.167901193716514,11.874515011686332,-6.231821371711188;-5.324620051226635,5.033350630791894,-20.19974755587819;-0.3732178978154124,-5.596383658671938,-10.029396571638033;
30.346538802427126,-60.72607792787611,0.6835952203843725;31.294959600903834,7.019214011098432,-9.59141133491286;-8.284594615957852,7.918818689233273,-19.080100433403125;10.694250532515026,-6.827139999506617,14.771911363711528;4.247734264356894,1.4883492977087625,-27.012876428748612;-2.9160589828150014,0.8169949549406392,-22.78502829058272;-1.7839247689159352,2.9802168793654733,-4.82288136881432;-0.5312303940550747,7.4620916589523745,-31.22636003051535;-1.3177133081079295,0.5030548833269001,-14.35046469531896;-5.386984576117845,0.0769891289439284,-3.971560699959742;-5.234142550629798,13.596950626734795,-25.025202768841396;-4.217349314131476,0.3998535336125694,-17.283201932947566;-1.5180347499206552,-3.2465658160417044,-13.001912253495771;-23.30960504855301,17.705233917157912,-5.847500905661577;10.313630093678256,10.379423122649255,-4.044434049947208;-5.329056898947212,5.034942046760584,-20.30403995971318;-0.39601662602761784,-5.592213476136255,-10.535372097322757;
29.79083973775582,-60.741725961730374,2.1415336365720066;31.258006884796487,6.500537159894959,-9.860682564585618;-8.16965084341064,7.876731015110884,-20.86345829714965;10.932877182620322,-6.756273755169932,17.753657045273776;4.153491219707674,0.7984294700760245,-25.086519625119877;-2.9186599681075958,0.8180532685371976,-21.39304269235859;-1.810153679135494,2.9821530274334704,-3.576878295357563;-0.5647396022773771,6.744049742450452,-30.997034836087604;-1.316462965739445,0.5027534998388563,-13.755771203082752;-5.360234676232429,0.0751874307277568,-3.6966454340215726;-5.286955248435231,12.986636702426495,-23.318743865591863;-4.192088907472429,0.39224580893455513,-16.098606618380806;-1.493822522940047,-3.25211150446251,-12.677146217084072;-23.30960502923395,17.705233902483332,-5.847500900815214;10.354336420743534,8.918982014779296,-3.9035508183618077;-5.286003956860282,5.019361425540994,-19.287456485098048;-0.3836565905257566,-5.594541183498264,-10.261369905782962;
29.769117543559084,-60.74278980812288,2.1980517646061912;31.047813664689382,3.9838723764606825,-11.162746153202438;-8.282108828162267,7.9180605230891405,-19.117574165761788;11.121968891316767,-6.69016184039045,20.153655238040827;4.0712617589250035,-0.23227587705011032,-24.28164307097824;-2.921822291724506,0.81925775379801,-19.692802749579382;-1.842521944331667,2.9837455285306116,-2.04253400891459;-0.5941493427902248,6.266055626470948,-29.362187210079803;-1.3141889376807274,0.5022105210627804,-12.613404006568295;-5.302396606261247,0.0717358862461599,-3.1016334437605337;-5.343845154910766,12.335887116969639,-21.366445951317992;-4.183941106756979,0.38991621578659885,-15.71652949088785;-1.4940868240360512,-3.2520103832643494,-12.680831699040345;-23.309605009946758,17.705233887832975,-5.847500895976846;10.239318084695128,8.176058673515193,-6.624462955877462;-5.266029648774979,5.012453213048124,-18.819084284707905;-0.3641225026589657,-5.597939565079412,-9.827144311602414;
29.90137059183501,-60.73763694745045,1.8513326576043312;30.95283081806469,3.0055976207352564,-11.666674237953563;-8.366039809517439,7.9463863376890895,-17.82704579805736;11.174669844406193,-6.670054073417283,20.82926980895119;4.07476361823316,0.7073386715661107,-22.573928156625612;-2.926725345488163,0.8208721140598533,-17.165599711268246;-1.8793884644024912,2.9845070034407786,-0.29804856328454576;-0.6113900532567762,6.106590881106047,-27.31089108871285;-1.3121441255518587,0.501776120374557,-11.621517708428144;-5.248422921236077,0.06905162667840326,-2.546500796637769;-5.403928569222728,11.459581857605492,-20.60997833642993;-4.170932347855547,0.3863378516811897,-15.111788459776683;-1.4810254816029387,-3.254903562520361,-12.50521061315666;-23.309604990691344,17.705233873206762,-5.847500891146445;10.205320217897272,6.463326074672564,-7.911960163200334;-5.198227540492088,4.990288207798442,-17.23525070128624;-0.316368410370342,-5.605800122005418,-8.770288258967554;
29.75683783068799,-60.74376321368145,2.2294422041504554;30.870454125381624,2.2157209098752078,-12.072380634598055;-8.376948045980866,7.949890087514728,-17.660538536378667;11.175656629440114,-6.669685894051882,20.842015342820027;4.050989855687771,2.4995748068674555,-18.43347354989851;-2.93167564221018,0.8222887358022448,-14.603797171362462;-1.9107534389054368,2.984273552427467,1.1853560819701148;-0.6304507292788142,6.011150450054911,-24.35145380361919;-1.3081187507801835,0.5010230748831275,-9.65798958700114;-5.1373880457063015,0.06522963765280121,-1.4066137663392944;-5.49933472807929,10.137726928457655,-18.606373562927402;-4.127933742963846,0.37553232904377676,-13.122799856522718;-1.4224809901215951,-3.267428196664831,-11.720579671814736;-23.30960497146762,17.70523385860462,-5.847500886323996;10.280524178212806,5.360542789293559,-6.593790465258536;-5.092944966274382,4.95998256569863,-14.804329207232222;-0.2548011038542013,-5.614490096953857,-7.412337251290744;
29.990339003566906,-60.7349615364345,1.6175675144816566;31.10687519397066,4.635838365073528,-10.826176844233215;-8.272672639196927,7.914707201291617,-19.263820878149602;11.159085262796411,-6.676065041134886,20.6291081779298;3.9426182089748973,5.234721934624585,-10.13878026793764;-2.940060853510409,0.8241550187208608,-10.32689619222742;-1.945340261921343,2.9830699879501967,2.821554889063714;-0.6585982579128297,6.101133482289849,-18.102345628854998;-1.2968621349354474,0.4996501729484756,-4.1896858686316705;-4.884318239622639,0.06474200031598576,1.1912329613548671;-5.672609150821808,7.8760271541272235,-13.22460255195;-4.010259830719753,0.35381765322124403,-7.751331016773818;-1.2322987996466788,-3.3024749963989573,-9.186240890087806;-23.309604952275482,17.705233844026488,-5.84750088150947;10.448684935157715,3.4553716370305008,-3.3380206220837074;-4.9100204933858915,4.918568631824574,-10.641031491827967;-0.1654718401912345,-5.624550657898132,-5.447267752807669;
30.293945141063947,-60.727446254971206,0.8204050727038847;31.071111281580553,4.236983121886723,-11.032150172617571;-8.31735106903866,7.930150032027614,-18.575383666622997;11.173625175609468,-6.67043921101106,20.815837065289006;3.980685710949907,7.708659892401977,-7.3429898402446625;-2.9408021307802787,0.8242824645945186,-9.9702765921155;-1.9492215817159437,2.9828760019100184,3.0039163063557286;-0.5977490543661912,7.804826217205539,-15.074928480856983;-1.2948801810289188,0.4995193618563417,-3.229046884204344;-4.817778862318521,0.0665142672872514,1.874240399304636;-5.61358761781398,9.118615435373187,-12.053493355050648;-3.9798925360049275,0.35001995355749793,-6.378149904778155;-1.128605037102925,-3.318011386117697,-7.812118198077972;-23.309604933114848,17.70523382947228,-5.847500876702844;10.481303590956504,3.7039416734128476,-2.6352594839671646;-4.792825975820388,4.899190526921446,-8.005154452548467;-0.09087800730207651,-5.63066358701424,-3.812136465884265;
30.240558529812052,-60.7283561281416,0.9608276112606742;30.981687140898508,3.294563124110833,-11.517938094209933;-8.38205797695523,7.951528341713722,-17.581902139475687;11.166182968738745,-6.673322239156615,20.7202288837125;4.0109303159696585,8.168132055765177,-7.592163298807321;-2.9400193486795043,0.8241457157027516,-10.354212574018163;-1.9509088186347594,2.9827803684309395,3.086753122081179;-0.5594551976109812,8.678221406688156,-14.830037787699357;-1.2954025789697552,0.49955475086512946,-3.515930500992283;-4.804836424587769,0.06695789546714082,2.007544414027688;-5.55887735076935,10.023081250789112,-12.38225010907102;-3.9901644542466275,0.35120935711848844,-6.842102322804962;-1.1100229825898578,-3.320561658877977,-7.566904614495204;-23.309604913985627,17.70523381494195,-5.847500871904097;10.493397023205796,3.44565510860651,-2.4046533833731196;-4.746743873380306,4.893104727760253,-6.973524358969826;-0.06296239601555564,-5.632336138442286,-3.2012881905779125;
30.080589361842264,-60.731939206177536,1.381196284954596;30.972235861743673,3.199117738689596,-11.567019986656964;-8.37001873561669,7.947672933564208,-17.765851403494374;11.17938168337433,-6.668224864978074,20.889845701556023;3.981732934923137,7.695619793875619,-7.396005296596609;-2.9394972147581178,0.8240514712088871,-10.610911392237774;-1.9537515968672432,2.982621036840741,3.219366163095838;-0.565169525824577,8.589688804730494,-14.51293908903374;-1.2967632386344456,0.4996445690785061,-4.157684879195742;-4.810580633729469,0.06675764324025879,1.948365478058367;-5.567945328436,9.920807340464554,-12.019990396870536;-3.996811038388099,0.35201668508140505,-7.14220677690578;-1.127100242784961,-3.318247601071481,-7.792433114616195;-23.309604894887716,17.705233800435405,-5.847500867113208;10.491282604651122,3.04929614578698,-2.4744855282545153;-4.732464359419315,4.8913812825595215,-6.654381903163674;-0.06416057649751306,-5.632272282405682,-3.2276225526123525;
29.86221438333063,-60.73915618283916,1.9540185225694806;31.028407456736883,3.7765219935212655,-11.269663690216186;-8.385767815737234,7.95275211345815,-17.52466702813546;11.18183114850812,-6.667294352722364,20.92136576531043;3.989082174610116,6.902735687987094,-8.894324243750006;-2.9386663575892493,0.8238874149891806,-11.043067988411728;-1.9546793086700005,2.982560780085767,3.2643282326345666;-0.6120066685936129,7.33149681907169,-16.42226876604319;-1.2990403282264062,0.49983060241404775,-5.245982429185865;-4.826411519952869,0.06624039790628822,1.7856667101747092;-5.5902326636332855,9.48906951273759,-12.318346464559735;-4.0124746575664005,0.35407156892128766,-7.849755884170001;-1.1322803653032427,-3.3175747705464396,-7.86119728971558;-23.309604875821037,17.705233785952586,-5.8475008623301505;10.487532735525026,2.406083753284559,-2.5719893683458714;-4.739465954628674,4.892212406490297,-6.811915937311191;-0.08200743508057906,-5.631210806787589,-3.618564837793567;
29.5040907396978,-60.75629084113208,2.8911226814028055;31.089789707444112,4.440276778352802,-10.927281254402466;-8.308770842395985,7.927270465618842,-18.707057229217458;11.182198769210832,-6.667110023063159,20.9260744975583;4.011374254325535,6.328719856269107,-10.542354734364913;-2.9376445086346794,0.8236793525044884,-11.568562798862914;-1.9504402704212773,2.9827901234208327,3.061928288416812;-0.6702671547669105,5.783313840808471,-18.597735454728742;-1.3008562766825136,0.5000133763472642,-6.131407384046341;-4.8118002023772375,0.0667172600865622,1.9355684769727937;-5.629141097828163,8.633697824456908,-13.421528460044719;-4.037849641067209,0.35782487734988444,-9.001083791512066;-1.1598312576340741,-3.313725016423926,-8.2252010298034;-23.3096048567855,17.70523377149343,-5.8475008575549055;10.471510116028226,2.0478674205026106,-2.9053152241572597;-4.78750519569566,4.898420894819221,-7.885434740673539;-0.11606895564141739,-5.628846750614212,-4.364148688862951;
29.622934683633215,-60.74952328399565,2.58095183635335;31.229419701313706,6.120572463872834,-10.057783952173128;-8.139086379573882,7.864786354953644,-21.341504792397526;11.182235059156863,-6.667124191089531,20.92659552304044;4.040387893702577,6.421746073851413,-11.326911668551535;-2.9371263518567394,0.8235731510086858,-11.82814950072638;-1.9506475644284473,2.982773416145861,3.0715991526383988;-0.6777297031435822,5.563413907165503,-19.05041198852101;-1.3007872090741113,0.500004491923957,-6.089621431051256;-4.775450083267231,0.06807962226243647,2.3094135508562275;-5.632205741492907,8.506993007132632,-13.889755780251637;-4.039991028358488,0.3581629255804306,-9.09987306515918;-1.1557297698719404,-3.314330199951385,-8.171162799255505;-23.309604837781023,17.70523375705787,-5.847500852787448;10.410772675781324,1.9264273640637892,-4.172628534583616;-4.824800167671298,4.903869067974984,-8.72145276026989;-0.13819933880505975,-5.627062820886142,-4.849584583291698;
30.168641689942014,-60.72899912827741,1.1513996513405544;31.271031730643884,6.679252023009124,-9.767956583358385;-8.147073354637142,7.86797988044185,-21.215511952580375;11.182238139683854,-6.66713284728461,20.926682845653218;4.05277653018389,6.970249721205734,-10.837002866022518;-2.938330657638497,0.8238244581634896,-11.205036779440404;-1.958598817817196,2.982314850623076,3.4497060980647536;-0.6768196814164485,5.609431385976224,-18.834784028925213;-1.2981800476607213,0.49975587289761175,-4.831810227486699;-4.691675403740279,0.07210591858647297,3.169394189630893;-5.618723710096909,8.585865144586874,-14.956899443072116;-4.020116426220225,0.3551304417369936,-8.196440788613259;-1.0975961830984762,-3.3222926075449006,-7.401848718353186;-23.30960481880749,17.705233742645817,-5.847500848027754;10.32790670810042,1.9070533356345303,-5.906892238843813;-4.80636760769751,4.901096237388276,-8.307525526941838;-0.12948051889092604,-5.627792458252461,-4.657978975478045;
30.2674096783468,-60.72680603787254,0.8920228941919071;31.24002088227682,6.259658593019445,-9.98565843242158;-8.18753887396876,7.883590989483267,-20.58452869478785;11.182240056647869,-6.66713488484336,20.926723154620788;4.054973743293386,7.468030779134153,-10.109810566644162;-2.9390029413587095,0.823952177627453,-10.875556004250264;-1.9647521340679095,2.9819281243132005,3.740630461911902;-0.647773193473212,6.371160369833319,-17.85330776926815;-1.2959727259858511,0.49959050437024155,-3.7793247803033836;-4.631572438888023,0.07575844661233977,3.7872241338354264;-5.576177870583488,9.282639088503064,-15.347060416352015;-3.99538390163952,0.35179310946829057,-7.075446740570321;-1.0291898318851103,-3.330625677613961,-6.4989406545491235;-23.30960479986483,17.705233728257227,-5.847500843275807;10.274032945495373,1.2990334756560262,-7.009589112537766;-4.769384964990655,4.8959432548478485,-7.479063512049763;-0.11640578801774915,-5.628799988189109,-4.370590939920756;
30.37651908440448,-60.72518497874801,0.6049896887114095;31.205054759702346,5.806499764857767,-10.220576310066594;-8.208643230646414,7.891524876941513,-20.255537276618856;11.182240709697183,-6.667130555393643,20.926725406497066;4.031920438839711,7.545967772170973,-9.243624468835762;-2.9392381245825145,0.824004420323516,-10.737623253276329;-1.9654074421060863,2.9818851285711205,3.772943194221229;-0.6318213314180218,6.712331300313367,-17.963625002623957;-1.2951857940823766,0.49953993207805125,-3.393814390389217;-4.595382900715158,0.07827484205158175,4.15903192898412;-5.559155101100061,9.491160390538184,-15.951650094232786;-3.988837123260306,0.35100276281852383,-6.781887152320287;-0.9906351973032859,-3.334848374169143,-5.990931247429174;-23.309604780952956,17.705233713892024,-5.84750083853158;10.242788679417302,1.1292689484027107,-7.653944780294006;-4.757010549560774,4.894342325440839,-7.202014742464286;-0.12270478594918477,-5.62835842216055,-4.50963599633705;
30.766331260385787,-60.72465673099583,-0.422951257554363;31.21840398724634,5.97693713652072,-10.132211515898335;-8.261272089775677,7.91070149230727,-19.440445259685525;11.182239251954329,-6.66712049310498,20.92669059394369;4.030924568847924,8.170460215948303,-8.229176223720696;-2.938437722297442,0.8238444007717366,-11.154271167402772;-1.962381156015269,2.982084448404822,3.6300957873816895;-0.6167780509582951,7.053385221688677,-17.903805125300426;-1.2950166731119044,0.49952925597858516,-3.3058627245238412;-4.579549834671395,0.07945378298068895,4.321984054342117;-5.558170489400933,9.404482038219825,-16.65207249515371;-3.990906173646894,0.3512528262799557,-6.8733642906653;-0.9878283347032917,-3.335141666283652,-5.953885876617953;-23.309604762071782,17.70523369955014,-5.847500833795051;10.247459159371957,1.373451608353296,-7.5727324268938645;-4.737200829115071,4.891917562420508,-6.760007050268577;-0.11807930687719237,-5.628699858591018,-4.408210695376191;
30.899159840351842,-60.72650802218753,-0.7744760288614998;31.220061703403506,5.998623310620962,-10.12097992711988;-8.293452487845162,7.922026691943461,-18.942605042172495;11.182228258393481,-6.667109588562796,20.926534479614816;4.03867233603475,8.436746475875722,-8.064068103838128;-2.9373759493380165,0.8236237503724152,-11.704926204459284;-1.9597752099329862,2.982255048929103,3.504621169592962;-0.5919372325184822,7.608788943860333,-17.860783211322644;-1.294776310970582,0.499516269452361,-3.195357739867731;-4.581123579183635,0.07933491013049476,4.305612427187938;-5.531576450130564,9.796096340341654,-17.139195169890822;-3.98982378399854,0.3511327002272506,-6.82427004042934;-0.9848305847204817,-3.3353970381265583,-5.9147358211781444;-23.309604743221207,17.70523368523151,-5.847500829066201;10.232002575401292,1.144982139853357,-7.881845986187891;-4.736906849498849,4.891891058167831,-6.7532110957602995;-0.12168884870516661,-5.628400382439574,-4.487219176111321;
