41.58754040606838,-65.00737714506319,-32.365109577651594,30.192856878704497,-4.653469779013562,-15.645391376518035,-6.763014226063671,7.0286527576422,-46.04612380472959,5.679067869766735,-5.4414180754374435,-51.2280340547824,4.953401874302745,2.904219786384431,-52.087660240460195,-2.8687138534282206,0.6863413357601608,-104.95407688337303,-0.9325389624627736,2.5204804750812437,-52.94016703956021,-0.4135996693208437,8.9705949252687,-43.32294943661947,-1.3058760153856281,0.5099343110930525,-6.9841169164987775,-5.382841581897985,0.10248300365484653,-3.4737443311710194,-4.7311578152296745,17.410399694402443,-69.77688971202281,-5.1509951727977645,2.1078471596615884,-113.71237593797275,-4.279615825679816,-1.4687365993960846,-57.184248317610496,-23.454398123048872,17.81521412691307,-5.8838240279377425,7.959622579696303,2.780908332595814,-73.66033861683954,-7.126549342025343,8.151460885534247,-106.03977360422542,-1.8459903111866591,-4.881088652306802,-46.728412447993804
41.02529780049699,-64.71534492363314,-30.677570728891567,30.256114769176527,-4.033700875846819,-15.322867683556694,-6.935732177792521,7.138966405282096,-42.969959283476285,6.119637785494486,-5.5821521649071135,-45.21855160492285,4.909457566868124,2.595725543363585,-51.73635024432173,-2.8747387385171153,0.6944991528385963,-98.40354617385566,-0.9769562597342922,2.5612421078919545,-49.99044837384639,-0.4518956763885935,8.521310821269878,-39.51343568058726,-1.3081881789900591,0.5095109818865137,-8.113827236526049,-5.294206312963052,0.07975012775418833,-2.5514020752654005,-4.808644163132115,16.675010312875273,-64.45152951745149,-5.083979862660301,2.013824515481949,-107.96318559706157,-4.0572509592772406,-1.6218958701278394,-53.52055347179464,-23.445579191383043,17.808515547169055,-5.881611690544174,8.056202113146187,2.9238159069205665,-69.2883775531941,-6.99826244353365,8.010161805633299,-101.8164396378103,-1.730049870237476,-4.892422290342407,-44.239930737027095
40.81470593112846,-63.98169746000537,-30.426702661644583,30.1768881242338,-2.779802255317179,-14.586223928141521,-6.846942567451089,7.040107237052716,-43.330265901964815,5.879730505733832,-5.563129157801946,-47.10627441498829,4.978505826715011,2.400266756966289,-55.640055259585665,-2.8407294258038425,0.6691616879694846,-110.25643512934788,-0.8149763111376389,2.3995915526511395,-59.86563761098432,-0.42549990903390267,8.710760114345362,-41.660229086667,-1.292840911809061,0.50253810217653,-5.047967760944033,-5.06231276735058,0.13443052415784607,-1.0409268212550273,-4.788433610119774,16.082923282642824,-66.52987270770146,-5.0877498143832725,2.097634254817843,-112.78547081999622,-4.283763935330908,-1.3344201518129841,-58.18761641557043,-23.259411271972226,17.667108322374204,-5.834909179922462,7.9551918634456396,2.5106774210004232,-71.29752297986784,-6.966804149216484,8.055922296791364,-103.18736627330611,-1.8862136215705618,-4.807891794364572,-47.95610963452873
40.90004761496216,-63.97196821966957,-30.146343084012074,30.13737763047262,-3.8121733025096205,-15.150611224362137,-6.85445234972952,7.043910306324256,-43.77629589210523,5.741597551326453,-5.422729106562294,-49.73386378172185,5.0108532610189975,1.0689314093019675,-59.23650412647231,-2.8459714833603806,0.6697280564868933,-112.18514983131753,-0.7905261969009478,2.372488601858042,-62.08937937255729,-0.449964917788348,8.085582278289905,-42.9025352528361,-1.2917491505215013,0.49889082450960853,-0.8958343292901816,-4.9844390836230765,0.06844433680983997,0.15105784973508207,-4.770074671947134,16.530915112646696,-67.35461223625614,-5.102080984514943,2.096016707968975,-112.66061185028504,-4.421195203414694,-1.2228815335457446,-60.71316459015452,-23.330589815468855,17.721173278002407,-5.852765192354632,7.9851017559100885,2.9904975528561124,-70.52668489017444,-7.000814464616255,8.147364400594974,-105.2098959784204,-1.8807072655760066,-4.802182676753134,-48.041891839767175
40.493349421947705,-63.781508815152044,-28.63855854500943,30.119969617649595,-4.5101709346034795,-15.530859698835854,-6.814278006635078,6.998741657901259,-44.87114841421472,5.689111250816051,-5.441719761624286,-50.37195868272133,5.08547466097513,0.6916360457831843,-62.828290676684844,-2.842732917560042,0.6633242738184908,-117.67588322694944,-0.7005389116267837,2.3140268944652065,-67.79750819443615,-0.4653429948132004,7.587254898596655,-44.80714436866219,-1.293093766609494,0.4989760291498012,-0.4887071281960118,-4.832369276998836,0.053883897537890135,1.852640752125069,-4.827506802902808,15.500684545020235,-70.70471132562724,-5.178643848319176,2.203229477454345,-119.50809720628588,-4.535790611029553,-1.254666626294127,-61.658043499305734,-23.36416348778139,17.74667477064821,-5.8611875606808646,7.846550180960355,2.5369973967306265,-75.43820901836779,-7.178548697215259,8.351176019750923,-111.69248363861627,-1.9631200570964875,-4.81509045721592,-49.608675279028546
40.853222728285665,-64.00956823043393,-29.756928660053916,30.12720040184368,-4.522978553708299,-15.540394067727135,-6.672609715347166,6.9389267035182565,-47.25910260379276,5.324526064677798,-5.267058021985561,-55.60451507026437,5.107851635875239,0.4245581992298071,-64.4796819291858,-2.841301886324279,0.6575385506274316,-121.48345389999496,-0.6469243863742662,2.2640443460645843,-71.48069334975867,-0.4700611390302978,7.384577887973194,-45.74602530110158,-1.293283542333894,0.4987228377304368,-0.1925919783485881,-4.816290167540373,0.022689145096006058,2.2369460812876127,-4.814191150886044,15.535512097340742,-72.77032169526694,-5.211338974035211,2.2760446338559523,-123.46094475496302,-4.7229675385547125,-1.0724095573921364,-65.23198008244646,-23.374218006639303,17.754311863078325,-5.863709860308452,7.830358960204219,1.7275598687036933,-76.31089153227555,-7.2957409796648856,8.49161772355808,-116.42158568369749,-2.04753188022638,-4.754787298237684,-51.943645663659794
40.80332848724085,-64.07526937671635,-29.7604060223172,30.06541164777602,-4.754315132871966,-15.647830618120054,-6.674126319384543,6.938468698774187,-47.15982416375496,5.3218305904018735,-5.289628657289944,-55.517534365047254,5.078604371906099,0.19814786322621103,-63.79606054513846,-2.8432450364085082,0.662413812436834,-118.1246452232384,-0.6617688450375203,2.282110783645497,-70.46037011313211,-0.42085003710061564,8.260327390088548,-47.692935972035585,-1.289798432010087,0.4939238768679024,2.8172507750397813,-4.75294145822177,-0.060118579227530944,3.1572536851042514,-4.808350398615724,15.413847201899614,-74.86486847566547,-5.195363800723338,2.2159597496899504,-120.37313626658214,-4.626938893347681,-1.111420998434978,-63.90579333339832,-23.365429415618333,17.74763632912014,-5.861505134238836,7.681316166401716,1.0549279932121607,-80.58698913586599,-7.320956920312143,8.426230643774765,-115.70690139258384,-1.9563095157834223,-4.800162232848935,-49.573635694629274
40.81989641102956,-63.772347678992645,-29.51417355556916,30.167639257440122,-3.718941437985393,-15.114376691011103,-6.84823019844524,7.040410742749683,-44.07195451129115,5.605453422186919,-5.435835399705308,-51.467525042855755,5.065265506798358,0.025820267737174163,-63.67061389136262,-2.8419666655086413,0.6624761972997181,-117.79345845789993,-0.6882745025948163,2.2828571245845093,-69.17523411763909,-0.412117935480131,8.599331331999679,-46.14157924228692,-1.2871605152328434,0.49095748154977975,4.744827446006582,-4.515170391796087,-0.1300728882708828,5.774273412642117,-4.76856487947121,16.255933892481806,-71.79464938470298,-5.1537025272134676,2.1660474518749795,-117.19818436985145,-4.4566294468499414,-1.2322790763390534,-61.05792443198658,-23.35218381526865,17.737575392774023,-5.858182312600834,7.8004125538825715,2.2091800973707905,-77.08023486720884,-7.248905672053253,8.338085306824,-112.60956572420818,-1.981041588350129,-4.758816224224863,-50.576274941669226
40.497583996750464,-63.82446664392621,-28.697741436227233,30.251751562043264,-3.4317985164295237,-14.9798012803912,-6.799074032129304,7.070762093834154,-44.59736589496007,5.851039731560807,-5.55302192892513,-47.961285811666954,5.063614653568489,1.0742779089844134,-61.24501556810071,-2.8471550464357125,0.6721959298129856,-112.15603535257334,-0.7713444735250521,2.3664938661043546,-63.37848777179903,-0.44904501611269154,7.994629403426984,-44.146722106230015,-1.2910828504958292,0.4941012647885318,2.248039266425195,-4.735918980386526,-0.03571321215338408,3.1297003818415305,-4.845320916567214,15.345700161109349,-69.10433277101873,-5.109230041738087,2.100789539533442,-113.27825287805571,-4.286974043506337,-1.3945985081294205,-57.834263818883244,-23.35971968404264,17.743299398791347,-5.86007277789908,7.925517809935972,2.007071902309434,-72.92160246622186,-7.16629441894552,8.136438666421375,-107.7702196340545,-1.779474220739715,-4.860373989818794,-45.35656310863328
39.43881532646479,-63.41558249729602,-25.52219257727768,30.29592076360538,-2.4162485955687316,-14.446593487610471,-6.95176026392846,7.131723139912429,-42.06863235358944,6.1312746669664975,-5.591934287760171,-44.429041679535715,5.029036998816011,1.1935026297086324,-59.88603647897821,-2.852343887779575,0.6796376736800582,-106.48167318826238,-0.7895410364629578,2.3821083927269,-62.28143108218973,-0.42213557194532925,8.640222548462702,-44.2069499661805,-1.2946097808481538,0.5000616913142757,-1.7301042005339866,-4.925568950647396,0.02158649240846877,1.0185055655958877,-4.838248219496139,15.721822851918958,-66.79857931838535,-5.0552409362755615,2.027560310981629,-108.42026538985375,-4.118986694172337,-1.456792794157911,-55.44964027324738,-23.354552297446197,17.73937441644244,-5.858776475462906,8.093796488632199,2.3935999533875787,-68.60565212025156,-7.011332914058936,8.011866265089377,-103.064283741366,-1.7619929002326344,-4.858812240113149,-45.13894996160161
38.802423273336075,-63.01131173678767,-23.38949397877613,30.396788334921194,-1.599630372179547,-14.031357387931678,-6.824348170104625,7.084880986006191,-44.13352575124824,6.331958805246295,-5.7103594461924185,-41.427892081730306,5.026806112069352,1.1892405908239994,-59.8967315247055,-2.8500979881998476,0.6836085353706941,-105.16864165421234,-0.8132660430163474,2.412165930222794,-60.42231422741514,-0.4623919861350281,7.967445311705319,-42.189661439907965,-1.2924903531562215,0.4955998253075188,0.853517132500059,-4.737117745542118,-0.07168480201052496,3.388476559761102,-4.8601010553908255,15.480398836047144,-66.03323726578509,-5.030113520423177,1.980049852046943,-105.77942165343427,-4.030333614758225,-1.6000582491012176,-53.277634384980104,-23.354284099433553,17.739170701773833,-5.858709194694749,8.196550841181606,2.8294926419638244,-65.87482984950046,-6.968883677041338,7.875226842543416,-99.75303161010018,-1.6761725283812812,-4.918529799959544,-42.7616568632819
38.86062733361318,-63.19018078273602,-24.307094182868695,30.27200114903443,-1.739681365481374,-14.054568826384667,-7.033359585694581,7.182835710227824,-40.04910730230564,6.576228778321514,-5.736846305341324,-38.01831190302721,4.994352719004652,1.658973840509418,-57.745097215590874,-2.847809198100527,0.6853906272667749,-101.21618148136898,-0.8550426592456546,2.4274722410888288,-57.91422404486383,-0.4152516921646434,8.80970909934888,-43.42117430972952,-1.295841050526085,0.5020128936013806,-5.410346906279614,-5.04185216575036,0.0736174069218194,-0.501653479571246,-4.8260560768305565,15.8613219003809,-64.13866374205679,-5.018468797783656,1.888688229908357,-102.00490748087785,-3.971106195404598,-1.5663931402419093,-52.961686340481265,-23.27540329082267,17.679255350776415,-5.838920974395785,8.172814546948821,2.611604925946949,-65.42217614027078,-6.8804348613222155,7.696628797650727,-95.13892777379874,-1.6541863446173508,-4.892554321368715,-42.50343387979677
38.74129954292938,-63.21137359088279,-23.32986029107974,30.514225758467884,-0.8817406369587388,-13.681742309230174,-7.244324408582425,7.296487887247728,-37.407795060229915,6.69668450080767,-5.778246009596379,-37.26454751855971,4.94010621326807,1.797348831527188,-54.96434682232615,-2.8637950384634467,0.6987591123827974,-95.91055619713919,-0.9177937076825184,2.4435973191899536,-55.71335825532577,-0.43175417749633915,8.694683125976098,-42.61184192353309,-1.3039394006220961,0.5071244262073336,-7.509335651000754,-5.123317399197838,0.09996303934351225,-1.1834173936124444,-4.875352922802041,15.753684491936951,-62.81936532061437,-4.976442428811852,1.7897909863135602,-95.79959610307579,-3.805012197087006,-1.669680402293693,-50.49625765733066,-23.385702396024335,17.763035039641352,-5.866590860530927,8.3882141610397,2.80259352916687,-61.329945911246426,-6.70868677664684,7.371658840158789,-85.17988748084396,-1.4521304327827291,-4.982068672087163,-37.81314160477959
38.930481000490616,-63.32739030241873,-23.959485053568073,30.57168213757372,-0.29752499254260556,-13.380410355507394,-7.349657821678161,7.348892270783844,-35.65306073663485,6.968793065032216,-5.83403109990132,-33.771315234509586,4.890800214320194,1.7318017755220012,-53.30293344948649,-2.8675731771480697,0.7019957845931976,-93.68198723516477,-0.9799347797150961,2.4731226166146754,-52.233427517438486,-0.4380594370609181,8.629758747240544,-41.87034381365031,-1.308910212436136,0.5104989324241325,-10.715422842197455,-5.242883953566885,0.1956888257790954,-2.832874649096027,-4.896124559357896,15.672049601321604,-60.3370424826644,-4.943428716660773,1.7298927891831326,-92.15603272363988,-3.7146668189901604,-1.6874556036874306,-49.37787278116372,-23.386449143621842,17.76360224534875,-5.866778191342642,8.465003075202189,3.4142504590570155,-58.327015825675005,-6.601784379230976,7.263068950221798,-81.13127046720174,-1.3870382825069552,-4.980712090655447,-36.56008297319548
39.985102235092015,-63.775514819121625,-27.11441447898366,30.519364501747418,-1.1567508440427332,-13.83222435587598,-7.389554589861444,7.378137740731193,-35.007906896797934,6.782069759204212,-5.721461422047644,-36.65725253070207,4.951957242766266,1.3478882261318859,-56.10201352425179,-2.8663416845818923,0.695277212587023,-98.01129079439818,-0.9446800235614177,2.4319606073819937,-54.86254557149721,-0.42034717274723654,8.782381938291905,-44.34927083886271,-1.3111847230214781,0.5135990304038611,-12.171774325818205,-5.334592611054305,0.283667573486575,-4.169987213321463,-4.778242160815855,17.094487075708514,-63.584030136968295,-4.982949746687471,1.795139541495307,-95.79911312242548,-3.811456642027263,-1.5808481803041392,-51.325608015149896,-23.402090380369398,17.775482830831436,-5.870701987814508,8.307480423138209,3.6048486491996243,-61.87615340776179,-6.690539920737086,7.4109278512030174,-85.3422070891793,-1.5008161650484464,-4.93683548372755,-39.41509470942739
39.67638481891103,-63.520900871542416,-26.25984098893005,30.392905981970483,-2.3745905168870536,-14.444391811729929,-7.212056369410152,7.269892649482862,-37.81036017729443,6.66842190488093,-5.702713756263784,-37.84641197943648,4.916143286743072,1.4487586768966594,-54.449299768351125,-2.8621506893880237,0.7001681597178676,-94.59760870274064,-0.9349307691554092,2.431636436871628,-55.22930285077314,-0.4364981860848651,8.68358057388997,-41.327236028780746,-1.3052697155084523,0.5103466398772512,-9.947547412695855,-5.180368397443292,0.16495766125675537,-2.0521264618752753,-4.800223278997114,16.82851995258146,-61.55274185446359,-4.9640914148145665,1.7582883550967958,-94.02444739977909,-3.7426112875909503,-1.712208295205178,-49.41774899096879,-23.3631315303394,17.745890928622842,-5.860928681474393,8.438432628996376,4.21210170369352,-57.294090626252114,-6.548105428656647,7.165805073446175,-78.8608164385163,-1.2635312466564486,-5.052572663019303,-33.24652307360475
36.72597413416199,-62.10260319516217,-18.519397339439934,29.810468519760324,-3.2617235578293844,-14.72810025121818,-7.994818423083972,7.683505238177847,-23.08705187650143,7.4446248561193435,-6.105653218073201,-25.213110261066518,4.346561420506644,4.606701773304877,-27.405851080753877,-2.852861681376278,0.7464677040010526,-63.38086247185343,-1.113757983562456,2.65012909282119,-40.31915058733419,-0.46899037388235953,9.09855067914225,-29.79557036642948,-1.334713749294712,0.5360366749277679,-36.560381940804064,-7.120812259908103,0.8918904784536679,-24.476250689602637,-4.963872964770382,16.64996311049878,-32.68954633761794,-4.837202716549884,1.2688676615007668,-70.65454714348421,-3.5250389357908922,-2.1549982008385133,-43.3928328225105,-23.153833110261537,17.58691451188983,-5.808423600483356,8.795498570941737,3.9780575620696013,-44.57619002595902,-6.46498177946331,6.862219920341049,-71.2454642000053,-1.4895350924035284,-4.98104571327534,-38.00471806885285
32.2597850928483,-62.13739320812774,-3.5009514701604374,30.47952841149002,-4.02930701132783,-15.426653574341813,-9.12816995210542,8.176749070059591,-8.861648172396247,9.301289586572723,-6.940745193031059,-3.9492515661460956,3.7714716817455987,1.9448790698593825,-9.855651613305469,-2.962852104343991,0.8104703513098306,-30.97378368233703,-1.559142743144855,2.9433798264957005,-17.54219599544612,-0.612336164510987,8.220276522191611,-13.03084335568945,-1.3339540052117727,0.5214053263228328,-16.21821824902662,-6.015916190286099,0.23282330906101123,-9.810212898851688,-5.217291798295344,17.172450773415832,-11.877218617043413,-4.31244863532817,0.6310156550227457,-26.66134938375525,-1.6944088647801046,-3.106782634223914,-16.06189780834952,-23.682875174032738,17.988758021103077,-5.9411403042023165,10.934788153237196,13.52892802223187,6.869179786504731,-5.6232921768379756,5.425253965145692,-29.34042084835434,-0.44069358583880014,-5.618756429003269,-11.963766045954394
32.1387194360599,-62.01152999682414,-2.6429367677636577,31.033807371053776,-0.8766758351528097,-13.885121578489162,-9.0877920501406,8.197779495537556,-9.750596592780843,9.850437255183193,-6.9964386114206745,2.218822609191335,3.7979379490815734,1.986422316305223,-10.012465226424524,-2.981076594916491,0.8206128342514329,-23.978057269817796,-1.6628025385224807,2.9485614634269393,-13.521076434293448,-0.6486312789064979,7.43113036761801,-13.080355421610092,-1.3312108243787673,0.5200936233222776,-12.739976681818703,-5.953257616366089,0.26053493173278053,-9.330597093115713,-5.292114814274072,16.007007227050764,-13.81722324942771,-4.215030919071092,0.5575046691935325,-20.107391159832517,-1.5111612836374384,-3.167125259472314,-13.62360565948736,-23.7427816858581,18.034261100319053,-5.956168588955583,10.849275832674902,13.07111162499828,3.986421592122383,-5.541654087939879,5.40638098479505,-27.40363194305239,-0.3133993368620622,-5.6490234550257385,-9.25783052536623
32.77403539596815,-62.37811105255262,-4.006315808933984,31.425546012322705,1.0793091265181545,-12.958424197542016,-9.018711809274011,8.225690712690527,-11.480426841649782,9.992800131173588,-7.042024748595048,3.320759008148002,3.8695479314405254,2.358970060995958,-10.952534598608452,-2.9973249599064222,0.8250609588207805,-23.540552697402603,-1.6727008743955853,2.957631662782882,-13.773349127226254,-0.6304090943798863,7.5099032855501235,-16.625485147563623,-1.3347386688558007,0.521092650050249,-10.848915339139268,-5.796883306255737,0.2434824450455615,-7.494887316703398,-5.306578203656786,15.96327384686932,-16.173709747553737,-4.2171621966646065,0.5421688749981389,-18.883744995585893,-1.463771280185318,-3.197707367291512,-12.933121588258778,-23.8618133788065,18.124673784824733,-5.986029152052565,10.7439800841306,12.555181231945351,0.24648174666234013,-5.538920424951376,5.44378500158722,-27.21537662895551,-0.2664036114078936,-5.6771598803279595,-8.277955005762962
33.33001452674344,-62.54835859527624,-5.874669781922677,30.87755152320485,-2.5673167337964458,-14.774101308848927,-8.787929992951629,8.122499623217946,-14.881850546051874,10.021850732525683,-6.9951634267536225,4.082233708219519,3.9900548769780144,3.1070356259201475,-13.357638307200176,-2.9876561571524416,0.823921850463128,-24.427873968594184,-1.7490609912741935,3.001240448715311,-8.94578007456775,-0.5655928096458993,8.855282840340038,-16.514038832568893,-1.3307693821801332,0.5151017924279647,-8.450774362687866,-5.628125335157414,0.1151023449178421,-5.390234263205215,-5.232649555221679,16.983345048975792,-15.40620538318161,-4.2130893371232485,0.5080978950728248,-17.659564058054812,-1.4149827680235498,-3.2613289436375696,-11.898185271940662,-23.81629198889619,18.090097186256973,-5.974609551927146,10.798355966604333,13.73150069653343,3.078014200992527,-5.409826114923215,5.333254635431986,-23.337919326460252,-0.37444441570526976,-5.69378884568369,-10.164625176483469
33.51623527142162,-61.5562933346995,-8.104116748504737,30.704812093439667,0.2872761392101779,-13.088236310421905,-8.336787262857731,7.8872357889611875,-19.097560854159614,9.989688797108595,-6.602294621052955,5.057799067486002,4.011367414937553,1.1764919625513812,-20.0809893383082,-2.9291226239891524,0.7977555432191095,-29.924267510008235,-1.5871917334815624,2.858692609593553,-16.739415324887602,-0.6111837220088923,6.908313807471075,-21.272754150098113,-1.2990217424326895,0.5015824829249964,-3.8762993953812668,-5.286528587502282,0.10023720738308928,-2.971670179199066,-5.150101718989108,15.606045689509727,-23.343763892567125,-4.1978735915051155,0.6400073825034385,-24.700694384643285,-1.6009692120670316,-3.020248811832086,-15.358845279834043,-23.380510204182162,17.759091216020998,-5.865288335393511,9.987667680150683,10.599108898293508,-13.677641219376568,-5.360469605565033,5.424531917422829,-27.090253048117205,-0.2753123319983626,-5.537438738011732,-8.448616673270635
34.05453351075329,-61.97419608108273,-9.987686801879192,30.752808173217883,1.0997903347499118,-12.661647815240826,-8.035208336622668,7.791224050871073,-23.699589966157667,9.63471126978267,-6.407652360384955,0.1742804630183059,4.091350715071719,2.0762546404997124,-21.43309494093404,-2.9241635031253836,0.7915312827833992,-33.648819275895605,-1.595368380567269,2.849591234842079,-16.452986074277987,-0.5953303186610288,7.192934319336814,-22.05914668607177,-1.3012845108940516,0.5037120814036542,-5.698141860483332,-5.497628001091204,0.14595944181873932,-5.274525172073822,-5.131582536640028,15.569333641476618,-26.202372899506997,-4.28113868348186,0.76987425972538,-32.36393041149121,-1.783438334148947,-2.9026042292925904,-18.233697759989752,-23.370324028939766,17.7513541215782,-5.862733008145834,10.121717708360125,9.49495399033762,-12.276736875575125,-5.480040448756451,5.62174801837627,-33.05646369450314,-0.32364218788139887,-5.505015619436652,-9.590739330991624
33.57549562802477,-61.31695900648115,-8.222851440848444,30.853971541255717,2.015805561692048,-12.184067746209735,-8.346882277722957,7.894300715095472,-18.584394333702434,10.205968812413008,-6.565867003177774,8.043432021600012,4.071783023366393,2.790460439182027,-19.662078292463264,-2.925857142447338,0.7975461408736512,-28.474317654462894,-1.6359885199576567,2.8822330702396015,-13.639418085898228,-0.5831049526659307,7.849769330789968,-18.251002645368963,-1.3022455637934522,0.5055796111890034,-7.98237683297333,-5.49982754436623,0.13872381685469293,-5.234940182486298,-5.112191858049652,16.347107342672984,-20.271114419756316,-4.196000727822964,0.6306054778551085,-24.307151469755553,-1.4639382116061164,-3.0829557124736224,-13.195610607135336,-23.336150331725797,17.725396869110465,-5.85416011619996,10.326307359450063,10.107884645442809,-5.7124715187924835,-5.15641553977539,5.258074770677489,-20.993959141573455,-0.10120919814568907,-5.573277181471321,-4.386908311146755
33.21903464993585,-60.89724845465914,-7.226443554002458,30.867161675280624,3.114107388463708,-11.58141113357837,-8.48009684863381,7.937291390912098,-16.009420209907923,10.435388349676643,-6.769291496276917,11.834386319722938,3.925475412605426,2.2533897216293894,-15.632557518013755,-2.931406439742492,0.8110919063242997,-16.535018464868713,-1.7397936098855897,2.92869960786312,-7.591243545183545,-0.5544564647859485,8.630748698858213,-16.238418842539232,-1.2925407757183476,0.5011478381617165,-4.354411605472933,-5.337555926343931,0.0888626218088664,-3.545961159126932,-5.069712507594888,17.30513509420956,-14.250151699747988,-4.014642826838781,0.4417083668682409,-11.280757529511387,-1.1432575929652238,-3.25923843884301,-8.229692676206696,-23.27026551947413,17.675352863233744,-5.837632101307586,10.595529741727008,10.912071044622806,2.2608814337760634,-4.870030433570214,4.928866284557798,-10.465225102844002,0.04427012054622281,-5.621566875130862,-0.8655264942750023
32.50032098775134,-60.7495073163198,-5.207611468515466,31.081286734008657,5.2956509197359765,-10.459867995776705,-8.60907319187598,8.011903238519166,-13.856845205387899,10.720639186826663,-6.847494537574595,15.486108845943733,3.9072656099938854,2.047377301731615,-15.148914872143223,-2.9307672580262554,0.814291302479656,-15.378653597806348,-1.7387819658000918,2.942314204589363,-7.3888791732507,-0.57790663031804,8.063370812006951,-16.328284138557336,-1.2945917098705082,0.5009400250152966,-5.256102357180339,-5.310498211175265,0.07972630306070805,-3.2736561599634797,-5.175762035109878,16.000927628272905,-11.425233315799716,-3.9899229748892355,0.3799738680144724,-8.219444660084921,-1.1493545256543527,-3.2871031369266595,-8.213858628319485,-23.26989479812014,17.675071275092503,-5.837539101300118,10.778395894983218,9.822237723271527,6.349867432113314,-4.83873416208621,4.866228549327689,-8.936368901967398,0.043402994102287096,-5.646242688218861,-0.7505398622490702
32.92372159872802,-60.95157406107933,-6.388570602197376,30.968892259168538,3.66383473144964,-11.311881728466204,-8.624865923909352,8.032665001125869,-13.669734810242147,10.587690507109091,-6.88396173950888,13.806279176595638,3.9204875932428678,1.7166644251366279,-16.03119379421622,-2.932375378433423,0.8144416812841818,-15.826453161481425,-1.7032719986921094,2.9336061338738793,-9.254915238584147,-0.6091168743782607,7.407246203959801,-16.130727363366056,-1.2941471295248452,0.49712983525848575,-2.9950208177559148,-5.197812875623633,0.04088029478268318,-2.0161424442254656,-5.243383004874229,15.004690774365116,-12.504555098721283,-4.02350533002773,0.41697532775840385,-10.85880489557875,-1.252697257231997,-3.2215585320061573,-9.983300176927912,-23.289685121652422,17.690103374807062,-5.842503747185067,10.586902211883741,8.730119349895872,0.607812636439661,-5.070784519733715,5.044189023253706,-16.151847682611958,-0.12669246957623237,-5.5845565113471265,-4.935831761657084
33.81558245458464,-61.15920923060694,-8.949353866785259,30.79236776682592,1.8526955400918723,-12.244777436501522,-8.685151855158939,8.03355526224232,-12.836224152893195,10.389680350310655,-6.861575597657355,11.288223540285571,3.9546493210417495,2.4434674393207274,-15.667580883205687,-2.9323231245523145,0.8185695472963502,-14.019175559770254,-1.7515652599973528,2.9504467282824574,-6.674224379273596,-0.558157923679973,8.434155612758218,-16.7974290035593,-1.2953051324383305,0.4944519986232662,-2.50493808862484,-5.084420702428982,-0.011561558862679178,-0.684460563447999,-5.176719448984157,15.797646338563368,-13.93287814450423,-4.072524109463332,0.4616515023062666,-14.497880829246203,-1.4016224055044795,-3.1923065939642337,-11.922298126196551,-23.289063929077123,17.689631536704745,-5.842347913392746,10.365867127144888,8.46056466250306,-4.86788711949464,-5.192432343746493,5.234936562706599,-21.680611509189845,-0.27371767634836175,-5.544314882470331,-8.352285075421662
33.3450465453366,-61.153066887693626,-7.600705567696792,30.99397435441795,3.667828615339147,-11.321501566818029,-8.641375758108405,8.027612845470225,-13.643184430738273,10.594339488404064,-6.88569814694038,13.748601266588082,3.942841860554431,2.333777343485565,-15.200448059221287,-2.936734277877277,0.8202357410817662,-13.3802156253969,-1.7927333964466836,2.9566463811550383,-4.847991082082046,-0.5579463799538154,8.316010371425477,-18.30982805013744,-1.3001081505536847,0.49844154611009944,-5.074107929369063,-5.14875120142937,0.021159163189070185,-1.3784073792510867,-5.1719111750402895,15.831458329635893,-15.18327732485082,-4.059949737405139,0.4317715848714041,-12.55695175001008,-1.2695609666743515,-3.2476090050051507,-10.024231593098648,-23.312220092208012,17.70722022101641,-5.848156921508904,10.386640639763531,9.134065691455874,-4.166047217654977,-5.120012385904694,5.120011762462421,-18.03766961199989,-0.15739680854957783,-5.581307921739736,-5.684651842594292
33.612507022946446,-61.05943098780503,-8.31533672961777,31.037125797751425,4.450002531225152,-10.903854693607684,-8.59482638625646,7.994693020206552,-14.286102095471975,10.647867610082766,-6.878272243507971,14.498990944328568,3.9421693158819338,2.139743379748154,-15.473193475718404,-2.937324063856003,0.8249649485504236,-9.859515838214946,-1.876820476892883,2.9901805428700294,-0.10785165575589417,-0.530550178046532,8.82699129913567,-18.803820865242912,-1.294530972950482,0.49593933194376805,-2.511195049641856,-5.118056801149407,-0.01481007791331912,-0.93531500723833,-5.022691573413528,17.711567964355936,-16.654067658180736,-3.99561402247569,0.361837685796468,-7.593754685945964,-1.0003091596636793,-3.344034845371997,-6.126276849527585,-23.290818165137487,17.69096399855305,-5.842787985070575,10.230110742443772,10.213069184974984,-6.612369091841487,-4.932083340461949,4.988646089824755,-12.312150655205613,-0.02738877915258975,-5.626508645548595,-2.4348944855380523
33.998922295339355,-61.00177070466103,-9.221091427634207,30.912497014758422,3.3833915122810936,-11.451675663695084,-8.746930577642338,8.034767913279516,-11.996080181962427,10.758760226021309,-6.923311708339718,16.01595779192678,3.9521177737461173,2.5368406178220084,-14.999371824316086,-2.9360949610086218,0.825305586667295,-10.316198827467161,-1.9146546296042413,2.997670366759567,1.8190247893183482,-0.4880819964156977,9.893549451876083,-17.40526484785886,-1.29470755815472,0.49425609830824474,-1.8312020169616687,-5.167697350784774,-0.05201955621509846,-1.2204417328073873,-4.9704020829867215,18.600637738462098,-14.923226272242573,-3.9784644087229015,0.3174402594577108,-5.176860028625356,-0.9806387317201484,-3.3791204628548623,-5.66023345859935,-23.293052906647258,17.69266143706814,-5.843348597442455,10.299018554363771,11.334365059395594,-4.023821976084946,-4.8738417950012,4.9198985316779895,-10.050433340926062,-0.057920401111577036,-5.64523769141169,-2.903047625103852
34.185345435340835,-61.120644998823224,-9.658277604664391,30.975980219508937,3.6312022148517826,-11.338429487145305,-8.729851032063777,8.036884090782909,-12.432941022822618,10.520553583604045,-6.9022661900103754,12.842730025734795,4.009478695762262,2.894325145384016,-16.413374400569865,-2.938434880698152,0.8227587224510428,-12.17988429796415,-1.8772345259472072,2.979789502038069,-0.5135703002294463,-0.4678638262441801,10.141561777462016,-19.735994289373963,-1.3001039545203836,0.50023555256985,-5.684803026364705,-5.336211293977424,0.09541142695906046,-3.5673906018846537,-4.9770017607614445,18.376122347074187,-17.288382447232323,-4.007963793096257,0.36776506178619606,-8.075684966719455,-1.101233210576492,-3.2982423041821933,-7.668478711272883,-23.319505356203056,17.71275387561928,-5.849984519518707,10.261991163310384,11.33693713551176,-5.049705581670764,-4.77169332484948,4.87443448861894,-7.249903224175313,-0.09252856625584549,-5.655428228719181,-3.6317515477398388
34.09977769857511,-61.174496125165085,-9.439952951646205,30.930382711330157,2.7965887767502977,-11.77666678431197,-8.75606590966063,8.044699031165363,-12.07118275553455,10.398743423358297,-6.862230675170703,11.11286991751507,4.0745567214835745,2.410079095198739,-19.517368457757982,-2.9378008916510536,0.8184537815158859,-14.604377099266408,-1.8186139853412122,2.964273325585502,-3.5853885862850916,-0.47266102561567536,9.820143048290845,-21.777526696994116,-1.2997724618549218,0.49964181278997666,-5.084871772295344,-5.300081802999735,0.04439827917376604,-2.91243242559068,-5.003586546070286,17.895220819521228,-18.78815821163687,-4.027399294412048,0.3810838472723894,-9.150552100278892,-1.1336234090261676,-3.3123060310377124,-7.888091677181023,-23.3274217316832,17.718766902403978,-5.85197043960254,10.326034112870053,10.083853463046893,-4.444532215068534,-4.756321966347906,4.838907511299675,-6.312231400227219,-0.09274021647274822,-5.67219252934809,-3.4716278808663787
34.452131021039236,-61.344791225194264,-10.465569962793609,30.929119286535045,2.9068166919586247,-11.721552478041133,-8.579334076898734,7.98304695353902,-14.906856809398064,10.188173643349401,-6.777576270995259,8.160697634290045,4.112601584640174,2.049933468347888,-21.529197962903652,-2.935392071106461,0.8104473584566019,-19.739664447410703,-1.7400287471557974,2.906855482168698,-8.589257925219954,-0.4832058089633122,9.386154202736918,-23.964337532059545,-1.3101584750759527,0.5138166361433933,-14.255494441295411,-5.794427198266291,0.27767152650348237,-8.740458093494794,-4.998722977273378,17.788258792829282,-20.458261835519068,-4.098485069879464,0.4789139093833157,-15.23967923967909,-1.3986858497309633,-3.187216689770894,-11.85761497908669,-23.34100578242517,17.729084914893324,-5.855378165681042,10.248851954658418,9.58425961325159,-5.768000800373358,-4.763145788944215,4.9213434375890985,-7.824945562253461,-0.052511897502775184,-5.637673939797153,-2.9894423033925364
33.48667563652073,-61.13292431698643,-7.8335431135475915,31.034017857289275,3.977634552684492,-11.163686587789186,-8.716783342040657,8.059013412416,-12.49493612766264,10.558141491397208,-6.851083681035281,13.11510463265131,4.012653298214275,2.7686307683340488,-16.475632198416747,-2.9409589047755773,0.825269972817032,-10.261368559778468,-1.8814169768113729,2.999673244779541,0.11026543821827772,-0.4780955491735366,9.790698593474133,-20.564233980469112,-1.3029908082534267,0.5015027949844169,-7.168405664008219,-5.389954752804627,0.060876700546213414,-3.870153178173439,-5.035909582660263,17.556820640845473,-16.619674520325503,-4.004848785676059,0.3458760875968405,-7.1543139743618624,-1.1194680038163227,-3.3651238453925556,-7.37050693060047,-23.324176446357953,17.716301886989154,-5.851156319893233,10.364805214546479,10.05623058846696,-2.736951703106513,-4.753117307605233,4.812856920298863,-5.804948723023998,-0.011482002848728357,-5.674041818965268,-1.7813582195394702
33.80888914925514,-61.050978521179445,-8.602030475530256,30.961328592978404,3.241284637996273,-11.541039726284197,-8.642320104115694,8.04075335525621,-13.61783893726161,10.521001107142336,-6.910515548644765,12.810545808149868,4.032554512470206,2.736749259359044,-17.27955263610943,-2.9399686298470713,0.8270476290421584,-9.431589409175999,-1.882158268152759,3.01289652890162,0.5050362139867843,-0.47325919937565075,9.865750568291105,-20.884924779901525,-1.3004482119163652,0.4964516293796547,-4.41521931462708,-5.241287104869748,-0.04942744161381363,-1.8879525499841634,-5.072578592050748,17.011081601810133,-16.468628556286234,-3.988942377241127,0.29120928527080014,-4.645411187382029,-1.1048133168812875,-3.4167237484304076,-6.84188099630785,-23.316469460102493,17.710447905587685,-5.849222927670673,10.433571039181164,9.821261298462233,-1.5416284047329896,-4.820993135822496,4.758408906298769,-6.131069715688071,0.08057480235877179,-5.711070677740501,0.5773720048097744
33.971561492151736,-61.08031011218008,-9.065665222350475,30.937591538847553,3.259252909432064,-11.527032477069127,-8.574054816442418,8.004325715991943,-14.751800295842969,10.412490620951896,-6.88668834488077,11.40916399122608,4.017875663797113,2.411374380066661,-17.568180550076477,-2.9368591096694887,0.8226595009893297,-12.459227169257069,-1.8458429257705493,2.988930099107397,-1.661880010154107,-0.48600493916039156,9.534406106416498,-21.626628032040273,-1.3035176476980872,0.49917165912176026,-6.702452451501529,-5.27901346008764,-0.06405359324885751,-2.1005318961762782,-5.049388308924369,17.286687099474676,-17.216966087273278,-4.00533569278053,0.3261999499429331,-6.5606359998176895,-1.2108410632067468,-3.397176731647561,-8.174167241833459,-23.31548297085046,17.709698599757193,-5.848975454717719,10.382475409093374,10.057344546556806,-2.6141092433771007,-4.835867054974905,4.788375112829265,-7.04329544869735,0.1036269094260227,-5.710371970950545,1.0995099699465527
34.72289869441063,-61.21156010853711,-11.243010134470353,30.79771743605877,1.8992843416793335,-12.220751624407171,-8.476203529906321,7.978716421558107,-16.14269163731427,10.409902152687977,-6.86757283501515,11.44891254261006,4.006315136400417,2.7098128901175187,-16.583206214246843,-2.937032009154857,0.8274521134772201,-9.39776580230157,-1.8919034525901388,3.021928173296904,1.3206495218029772,-0.4704264765350459,9.944230615291474,-20.666504245348605,-1.3022893378953884,0.49594072942063705,-5.33616137638208,-5.217189176864224,-0.12482202704541301,-1.2539933259864142,-5.002114023369376,17.859962082263166,-17.74052953399047,-4.008238917346259,0.3178263951007567,-6.289910563185662,-1.1073062096292219,-3.4374586117370445,-6.650746654901695,-23.299523483922293,17.69757628156986,-5.844971821276563,10.405286672226028,10.715201518352671,-1.878968422682675,-4.8338562268282885,4.778268447030031,-6.7028591407688936,0.020690621986830138,-5.700122852985084,-0.697275731181719
34.876891425891415,-61.34996031521226,-11.911369183976234,30.900099708136445,2.8532316007521104,-11.726775375564188,-8.533976702885983,8.002516226733862,-15.091015180970118,10.368084904081552,-6.878187962881286,11.062633351302168,4.1088799780680105,2.149800322547435,-21.683410534256097,-2.9286321686459065,0.8174870010962725,-15.761829459650734,-1.8211268184953617,2.9981640961531935,-2.2094174777846547,-0.4640257277031541,9.671570282876985,-24.652606529608917,-1.3036515408519767,0.4994781894365503,-7.551463285811934,-5.234032620145797,-0.10882620885126926,-1.473960611072357,-4.9940460570405065,17.349818628829354,-22.9600914440623,-4.045530277945292,0.3843983584015387,-10.009531854388932,-1.1403056254876418,-3.429911699615416,-6.995687566800598,-23.284715035955017,17.68632825592518,-5.841256940106377,10.274123803921126,9.241151312903938,-5.504067803423084,-4.917738334278594,4.857757439133783,-9.744161110910241,0.07617157973964694,-5.697382382458559,0.5385348622307902
33.69121165254505,-60.846625676181624,-8.232725876588006,31.048194819930124,4.2609525353962,-11.005739435899443,-8.607208877749578,8.013112313247804,-14.026639257318863,10.516175342880306,-6.8417314679858645,12.76414868206399,4.054162602586715,1.862103949021673,-20.007601579149537,-2.9333976153951458,0.8196348016511582,-13.309450411373852,-1.801215807608063,2.981395474967143,-3.6382385337821574,-0.4794079328682841,9.629894981353402,-21.692925131018768,-1.2997142717325552,0.49861596474719677,-5.8584036445973595,-5.212525775379831,-0.05087725832392209,-1.5337332649964992,-5.0442557445267475,17.19912499797198,-17.865627009490368,-4.007549560491636,0.34250374436148423,-7.3724351491067885,-1.1577956194501873,-3.377382488027421,-7.6259181289228195,-23.287398826235005,17.68836677758479,-5.841930201881912,10.403687694655883,8.16819923379471,-2.9431083146329797,-4.814794324395287,4.8137769898863345,-7.305692388645369,0.09270403943417094,-5.685545230362549,0.7601408365123348
33.26631034098051,-60.963320388821145,-7.110395101437348,31.045941581152295,3.8627926376355504,-11.224537945191372,-8.689440332730795,8.027578715329478,-13.030894428971848,10.711951223829221,-6.764783974157566,15.024575422679504,4.018251530675997,2.7089677415538063,-17.197121951283634,-2.9382730673661603,0.8228664765026039,-11.840596836606174,-1.832586457391832,2.988591475915805,-2.2521865001825176,-0.47101967068188344,9.742108595284208,-22.905535532893552,-1.3044891579307691,0.503602132824837,-8.891219122223106,-5.408006393666938,0.038407150619173436,-3.8275989341377112,-5.104096778938892,16.402847843947,-18.299618804659616,-4.017518944478622,0.36916966752692737,-8.539662353572293,-1.1550426509792295,-3.3437708174973464,-7.8872668893216655,-23.31379103103657,17.708413456132973,-5.8485510108219465,10.490341171604442,7.833741661805377,-1.4714572340071186,-4.979987544987832,4.873503214556715,-11.123904018402726,-0.04518180905435898,-5.647541191525924,-2.6094564097316493
33.59948511321274,-61.01536077644409,-7.978191747132428,31.089327426848033,4.519111180368611,-10.885162736344256,-8.718143009090458,8.048007517617995,-12.538315820255363,10.572801409685404,-6.81016334044977,13.279984754927796,4.025608171316236,2.6299699470234827,-17.618291231182752,-2.937747903625591,0.8224357406987491,-12.427094740390771,-1.8176224016477942,2.9929098899055897,-2.8783772479804384,-0.48907297535271077,9.441868814908048,-21.890771765818442,-1.3055336538400069,0.5020460450488832,-8.524097947917028,-5.383491783831346,0.002984174338767076,-3.4134865821260405,-5.098648486375696,16.569077970685385,-17.599219125545687,-4.053589869836946,0.37561864921595145,-10.055660485006968,-1.2331517176078677,-3.340997770280035,-8.814523005188164,-23.318241524451388,17.711793909246335,-5.849667471792427,10.587891875340947,8.456524400404774,0.8032871609838708,-4.947449147259816,4.880404968750159,-10.61200320026817,-0.13253769729037757,-5.649188489166341,-4.438365157040039
33.88172179486159,-61.065099136271066,-8.815737222614274,31.12321563946047,4.96753456587021,-10.652182319366744,-8.794088851860273,8.063786066069975,-11.36664951633199,10.651517736803967,-6.8053508196791785,14.342480640944814,4.036289362153248,2.6513536937602,-17.74457767137585,-2.9397068891818994,0.8276664756805773,-9.121577155302415,-1.8845059288772763,3.007860828693763,0.5425608022653705,-0.4854359738557523,9.465139532258661,-22.219034584595818,-1.3037178097217414,0.4997725886994385,-7.035947994651195,-5.337298300356018,-0.013384945929617587,-2.9226017792282732,-5.089222089682103,16.689136088509912,-17.303078053029424,-4.015988267017029,0.3397656550089332,-7.454957181197521,-1.179040229368976,-3.3562030858423544,-8.098717482031418,-23.312367635694354,17.707332290349417,-5.848193934606085,10.51832368552198,8.41641480829567,-0.4492155883548037,-4.926100124859968,4.879300794818772,-10.141114130153326,-0.05970250675194677,-5.658880514618355,-2.8205656109389565
34.6695546978446,-61.25068074246251,-11.165414089578746,31.13623553150826,5.272638539681907,-10.486865874754841,-8.563941587569385,8.031606803298306,-14.599446242532139,10.440249903876225,-6.933964688247238,11.891715136038442,4.016412999412495,2.31340083227542,-17.443798029111576,-2.9365634509799134,0.8309663445180079,-8.076983035363309,-1.9557351697066991,3.03617251597778,4.513559931329553,-0.492628356830064,9.19265575749489,-23.161856533201487,-1.304728345608849,0.4991933715529835,-7.566768167499873,-5.309331270219737,-0.023100335994156396,-2.695238017875056,-5.123484972547175,16.088199798948466,-17.53684849327368,-4.028970077207255,0.3244458104502206,-7.405122241960399,-1.170998807240391,-3.3833271429114102,-7.83697044217746,-23.297970287531385,17.696396523035585,-5.8445821828732365,10.473011282399987,8.76203599377051,-1.037042552943376,-5.058216312119239,4.895583203254518,-12.956901280531511,-0.019811757921806006,-5.664531344219063,-1.9236647765819725
33.33231429651596,-60.822245654957776,-7.25125238622428,31.085986912039974,4.695682670638405,-10.784492723488626,-8.351907503026343,7.950302434419506,-17.902464361238316,10.252925578902815,-6.946166095242592,9.40649389212848,4.055981321474519,2.5713717107810226,-18.313735174903343,-2.9364718314335163,0.8283690194992808,-8.991419055059053,-1.8940349850883038,3.0019944413809885,0.8732839584452563,-0.4579655610603872,9.824005872627254,-23.923681842819065,-1.3012044696881921,0.4947410977869625,-4.768341769200418,-5.253884570992334,-0.029788788644122377,-2.2096633942504695,-5.08229596537706,16.472077766769303,-19.075185021936818,-3.98328432892435,0.29311831012393696,-4.702702654273292,-1.07450815154656,-3.39500264056882,-6.663174323321925,-23.29203361036298,17.691887212065343,-5.843092894441505,10.268230096839156,9.283846481029329,-5.268737094578626,-5.040816138582706,4.895093557605082,-12.704793588135246,0.05070780038800038,-5.67297898104362,-0.41043494865328967
33.51335366218068,-60.86541987279835,-7.767607224034748,31.091323092456722,4.773536533644631,-10.746405301044291,-8.506568638944401,8.002523069448284,-15.528786042541142,10.463375782148546,-6.909200469371924,12.048540828535351,4.029070031944727,2.3566556445988454,-17.508658500824367,-2.9416980133397,0.8319577586029825,-5.580389056332923,-1.921180736151543,3.0095561863320146,2.2368082045952065,-0.4689605200443836,9.825445787946137,-21.608528729875346,-1.2990389221995475,0.49315239685453555,-3.2255835431161586,-5.139709630436116,-0.06784185237749796,-0.882933423674956,-5.092602275947739,16.638325078833333,-16.0919057252664,-3.9483406181547536,0.25501304710568995,-2.094673410887154,-0.9729836343864022,-3.43788476850232,-5.1620942246838695,-23.294748215628893,17.69394913979913,-5.8437738865361295,10.45317087830117,9.564625774372175,-0.8826330126564415,-4.885299239273229,4.7887611908874215,-8.03012985054167,0.0496784257753653,-5.699803331295294,-0.23171061234234003
32.883073610666884,-60.8402539692282,-6.075494329493637,31.126851134624562,5.012061276587929,-10.626144876163465,-8.250053510884012,7.928859493985247,-19.478870851403485,10.311482651077299,-6.9171267014417035,10.123138005213661,4.0138814037561446,2.8242384786328785,-16.188021220628855,-2.9418452402616824,0.8324575763071314,-5.8922871266139705,-1.9108721672880389,3.01911479060725,1.937806470867372,-0.464012390945328,9.799864750609686,-22.756709080484853,-1.3007086913030221,0.49411228826001463,-4.011984620346823,-5.232335399682334,-0.05582924687400137,-1.8271605836538924,-5.08994658751975,16.4865565239229,-17.827457060131877,-3.9499219686251767,0.2769045026385317,-2.7549020501095995,-1.0020125751301592,-3.4248595971751437,-5.5968930126320515,-23.300835795628675,17.698573071763644,-5.845301030796671,10.376880912713,10.297692093583493,-2.1940661189961475,-4.986385601928035,4.846055143936679,-10.865884372199702,0.08454197262779672,-5.682756409748097,0.37256481831934707
32.47252645529181,-60.885291917778375,-5.03438319268426,31.157726413446316,5.055959672830227,-10.60904418899679,-8.235242754492997,7.928863065018428,-19.721057086028026,10.311371948322822,-6.923532760285632,10.116946317371571,4.015881894474742,2.1783436189495546,-17.398335820132218,-2.9426270632638527,0.8315674989071089,-6.097500872102486,-1.8555673488435325,3.015374467162683,-0.7541057236955453,-0.5234919256017712,8.383247363062196,-24.113427875812988,-1.3033079390832056,0.49473687817362616,-4.922139965521069,-5.193899981553855,-0.044415947544205636,-1.5024305118038797,-5.157146805743105,15.380475605364978,-19.635368575772816,-4.019741383479684,0.297750171568242,-5.766308996611556,-1.124722283185534,-3.3893078325118022,-7.311141923274533,-23.306193434623477,17.70264256377726,-5.8466450603852085,10.278248218805501,9.264698999415373,-4.918767391465451,-5.013842262157459,4.843769600814613,-11.027609595798616,0.11161499210454906,-5.67645195431008,0.9120892450962401
32.60635437952389,-60.816410527255265,-5.305631790292239,31.122431804417523,4.949382336490999,-10.660719051534272,-8.197168445078747,7.9178814374340325,-20.301340958193848,10.197911007649271,-6.950926452884145,8.716182576432686,4.0948059420859515,2.424189337689711,-19.774635117435082,-2.9401438935368107,0.8272621605478002,-8.969782086439169,-1.8287736451857768,2.995357280053276,-2.425794530070789,-0.5034873283595367,8.608483645242984,-26.19412458825866,-1.3056129844401512,0.4984056508724813,-7.2395094207152795,-5.235260056862181,0.023252545709224748,-2.220958955313961,-5.127843231124616,15.703057423903743,-20.570955081330425,-4.030864055724161,0.32827993322718463,-7.427472684889288,-1.1562422804164854,-3.33512166976361,-8.064210723521171,-23.30685088229685,17.703141940099126,-5.846809989214325,10.244527549474187,8.66110206940074,-6.038132733802314,-5.012250227782625,4.915905063296601,-12.363729935819528,0.02435343014071023,-5.642732251920622,-1.1964296417892797
33.55822244869702,-61.112363874876024,-7.902041516156089,31.09871574614393,4.335433373697924,-10.994609434010641,-8.237929259264371,7.922863937363923,-19.928646238760223,10.248548338556173,-6.922012665966589,9.170752800328046,4.104616987566327,2.4510820600089005,-19.93152827047402,-2.9411711911814775,0.828032665694176,-10.31808774762873,-1.8502797602658365,3.0027769598427785,-1.4622676239415,-0.48503698328311984,9.342159120390932,-23.406547995243614,-1.3055079684323145,0.49919329850250727,-6.866728332693782,-5.333612178593569,0.025875205039533,-3.084815987810657,-5.0831819420886255,16.764338319585775,-18.547422674286764,-4.035616806331818,0.3390690639569245,-7.987513319714786,-1.1819423368150836,-3.34646270264935,-8.245427534372936,-23.339065740145557,17.72761132053845,-5.854891482232022,10.332531100612027,10.909792805019492,-3.457050310039847,-5.0194800824760115,4.916029391519031,-12.385097283723226,-0.0008012444490326232,-5.659427857676482,-1.6144951097839453
33.1722284559535,-60.9032060408182,-6.777046779624328,31.055756308554056,3.844773663650301,-11.241655237196682,-8.248356013338487,7.914114318290425,-19.721089541462803,10.453067028126931,-6.870660691751938,11.769770392138184,4.17225655342758,3.9252731426483365,-19.821956995534094,-2.9366326186530736,0.8244682782119978,-12.392912000169247,-1.8533524122205876,2.993373012429709,-1.3457987488177992,-0.4436133179782793,10.272086185571197,-23.061207222757886,-1.3034636602337684,0.49816920827880007,-6.116551153671793,-5.267873513061286,-0.010103105146859193,-2.2789027689888144,-5.050488400145441,17.233333935188114,-18.007566140139545,-4.0334086041466986,0.3361772175364983,-7.82520613758463,-1.1272162840692808,-3.3788325888640065,-7.3487059715394025,-23.322596889153644,17.715102105621305,-5.850760068555742,10.389959255786234,11.152633521541844,-1.898326412086334,-4.953061964751448,4.880136946401449,-10.660937097803462,-0.04593084369575173,-5.652269421107457,-2.573277564879561
33.19288235046956,-60.96256660327967,-6.865234638586884,30.898079946817898,2.1199291301147127,-12.13389178611456,-8.261920898465856,7.900834204692964,-19.630819517650238,10.420195482706468,-6.868613076028133,11.309609680743108,4.1763675070600215,3.5046150921045864,-20.85089351941167,-2.9362617467405854,0.8237291025370244,-13.258124933696152,-1.8336959006680171,2.990199823022234,-2.365667833173916,-0.4483594554673207,10.082129625675748,-23.981762797207182,-1.3025821998474445,0.49833451103634796,-5.708245501522612,-5.247061509876666,0.0046154048756772426,-2.1556931118489047,-5.046145050080675,17.215871418021905,-19.151570609362295,-4.006671288901153,0.34019144902369725,-6.993188840483974,-1.0998845943466584,-3.37487817381621,-7.05276502787666,-23.329136521028254,17.720069401797897,-5.852400615584966,10.372042326025253,11.469612158370595,-2.367356910381062,-4.910799451227035,4.864818381719406,-9.548411653645083,-0.028710194413772427,-5.655442232558345,-2.202752206557591
32.79732216793765,-60.90013761823539,-5.762815836629471,30.968333460355883,3.0106111077164996,-11.672581834526852,-8.145848034568068,7.872751517857413,-21.381956940625102,10.49999148947736,-6.8695987845811874,12.31809178396361,4.182279660087211,3.493301421603576,-20.986491971943224,-2.935463002134327,0.824369988055047,-13.446588250345034,-1.8721733558899167,2.9983712188504343,-0.3965102183909721,-0.45791143337310736,9.81078093096204,-24.483449452733936,-1.3011600143307267,0.4966565545465854,-4.402816286861565,-5.222644687147007,-0.05023118327864218,-1.6346477108335193,-5.111338238503045,16.29673418443008,-18.58578694119936,-3.9976780754214087,0.31478669305320484,-5.669167780616711,-1.0643383055839202,-3.4163833716728114,-6.318701494876791,-23.329404323646646,17.720272816137108,-5.852467797163688,10.482002633794645,11.082441074146217,0.015010008171600475,-4.911825730355487,4.823602362379778,-8.901876566707799,0.06843760974497393,-5.689120791082038,0.12136131618166246
32.915190267478266,-60.78319844359937,-6.2169334889858305,30.902377661964913,2.8319633516617273,-11.742004508376482,-8.19009583354659,7.877240750544403,-20.4161952994926,10.463230242215712,-6.861309125282176,12.075036257612794,4.182793598771056,3.4718457723695906,-21.26237374908328,-2.934317609944027,0.8243798037607046,-11.155975586207475,-1.8720569301710626,3.0019613791605186,-0.012513436689516766,-0.4587886695530248,9.772421106529862,-24.45354326520099,-1.2976846459077662,0.496410851431655,-4.173692820820946,-5.209831873816714,-0.028687628559683986,-1.712300956118895,-5.122458345401843,16.092725013410586,-17.662844696614684,-3.996899443985566,0.3218973644530765,-6.288323867514563,-0.9908096270265787,-3.4260420816206985,-5.3546343869239195,-23.2874992641403,17.68844306701331,-5.841955397965814,10.537514890841848,11.02206412166386,1.4369648663245584,-4.941181749693203,4.851123018825271,-10.261915562773694,0.04309986847656866,-5.6768806715216344,-0.43055925235904624
32.4800983111235,-60.80243872608965,-5.0773992451673,30.877994044775203,2.616718536472547,-11.85402516805462,-8.179870423679908,7.875839015744914,-20.594601122185082,10.576251458540082,-6.85083442086164,13.449557667050613,4.177903082948902,3.622266427561499,-20.6926129392956,-2.9388388497834446,0.8258809268659346,-8.879294158001777,-1.846931409664652,2.997579438366844,-1.3917094499637983,-0.4866201426833463,9.12225978745937,-24.72360374118874,-1.2973500387234551,0.4966457794210898,-4.007008869880735,-5.278835445470438,0.027580084781179792,-2.705566408948016,-5.09798457995452,16.228664361069946,-19.467880748974153,-3.994550590237564,0.3239788014115419,-6.204661578400291,-1.0638987655157912,-3.3705373045817595,-6.668980378283436,-23.291584910125817,17.6915463936424,-5.84298033247347,10.452134296850579,10.479952615365349,-0.6291829234992008,-5.024259918211964,4.895407624248077,-12.479274079778179,0.09347604503130924,-5.660564081595947,0.4866160492844074
32.3580913025158,-60.8360292876121,-4.6269099056147525,30.935516093009017,3.1090756738423693,-11.610535097530885,-8.268725105309949,7.909353143673456,-19.37930989971612,10.633157633901252,-6.874829456311049,14.123172271746284,4.132372712735329,3.3561842538647966,-19.36941152081903,-2.9404623710255597,0.8283441877065925,-8.988981687638315,-1.854006913554457,3.0097288264575037,-0.9815166707505796,-0.47950449702579867,9.217438760043194,-25.18912759768382,-1.3000776256926767,0.4966031877936701,-4.274439616370643,-5.26915420667903,0.019279979459627228,-2.5197651611989045,-5.083263352436499,16.491028829719127,-19.533341281799466,-3.976030493317728,0.3022490082546456,-4.502772585127168,-1.0396643917187838,-3.3871843500604335,-6.302549229642068,-23.316918930222023,17.71078930878707,-5.849335682773422,10.372194103768548,11.354670972252151,-2.023417696600461,-4.991829183531372,4.876551149078331,-11.397774788627018,0.18332433271486437,-5.673450327224782,2.410712538370092
32.40983986249903,-60.85229142736007,-4.687601216352732,30.92360048616694,2.6768575145705995,-11.842843248344195,-8.166957453158602,7.886245000918768,-21.020463393900712,10.526604189978372,-6.898736168799494,12.756054414954349,4.148733356808105,2.966590778117393,-20.665330589249663,-2.9439875596873213,0.8292247939066336,-8.159845363385994,-1.8548106384116343,3.0130642174719244,-0.9589562972175258,-0.4837031459908072,9.149463467271971,-25.247877647850856,-1.2967476811202696,0.494683840359201,-1.8373351535089455,-5.166390669706587,-0.024147472733282882,-1.24742606861264,-5.01936496267411,17.352695468006758,-20.729427874975897,-3.9448571404030117,0.2829023524556389,-2.588992164021221,-1.0138965659520878,-3.4205821442063353,-5.733855615834955,-23.33176950510667,17.72206933269393,-5.853061131999027,10.273063250916119,11.566747518322543,-4.157232187926496,-4.973422410317471,4.839141213393001,-10.22411255099194,0.27711547880841003,-5.698333882991479,4.691017077150605
32.593093449858856,-60.818758491453316,-5.256177334854783,31.060133465793605,4.230147861647993,-11.034107771398453,-8.209139282868668,7.902729174641121,-20.207414811573273,10.407816687205816,-6.945974670257324,11.413172945416648,4.186122491160354,2.5769886020966624,-22.944379520362418,-2.936569947301941,0.8225746764590256,-12.643012517237548,-1.8280554526729809,2.9819774356763364,-2.7226472038449288,-0.4715052595042639,9.083697693120087,-28.30254571544721,-1.3013736112278769,0.4977217008068391,-5.4147148805358825,-5.278395149312335,0.0706029151105394,-2.891564509761679,-5.072888664172707,16.20329395470354,-23.42453837533867,-4.0018977974658085,0.31392917471341697,-5.965686644368155,-1.2021915744148615,-3.3198223143688974,-8.746021821234592,-23.312308842014943,17.707287632559098,-5.848179185486623,10.171359471842853,10.384789509085863,-6.836832167076636,-5.098800118749656,4.910550850960133,-13.866077537058217,0.2518142310513163,-5.648757776825397,3.7205991502535767
33.29316314102286,-60.9757476917825,-7.148780294964723,31.063178558618546,3.8038828910098346,-11.267698110908839,-8.186211798310687,7.899768994015381,-20.676099334891987,10.10916240554237,-6.936389781866923,7.480599893014414,4.249255731002204,3.7037561852411613,-22.95845645544091,-2.9389114078907173,0.8214155130308235,-13.300828456632303,-1.8053219143372523,2.973621716456549,-4.065529043036406,-0.4136990988798761,10.113642481851969,-30.688745545491713,-1.3064504948550892,0.5015175291836017,-8.368541985384553,-5.330308114506657,0.09565470497869377,-3.433366607168466,-5.067021034435906,16.037825374775295,-25.960125490083357,-4.0593683737311785,0.3704972815332024,-10.063390584455341,-1.311382774139343,-3.26919239483422,-10.359090130084837,-23.329386641133908,17.720259385079707,-5.852463361285745,10.099306636994656,10.150942748029792,-8.568221613335282,-5.1646120286306765,4.982112962102949,-16.374218295934497,0.22072546499451917,-5.64290381817711,3.028991050037803
33.144750390546776,-60.9248439246689,-6.776677882813942,31.06884275308877,3.923148533088977,-11.201307487058784,-8.102808312306891,7.87939336460815,-21.86813776862298,10.203632320034878,-6.943533598538369,8.736032674696446,4.156917252874013,3.218490977374131,-20.75615362894689,-2.939399795806386,0.8237921545227673,-11.390810685173477,-1.8148580122688305,2.987261652534646,-3.270847608465374,-0.4332881799161612,10.075875660396434,-27.03980856442037,-1.301407623504696,0.49892971015104004,-5.714082850117251,-5.29837563497146,0.04479391434765567,-2.906396779060344,-5.047023266201354,16.759300689675882,-22.141297201757368,-4.015580223807188,0.33885124497042707,-7.394522317896694,-1.2348310865418455,-3.3238971753663327,-9.077754547636914,-23.31882216667053,17.71223494659786,-5.849813133028306,10.326558218232384,10.176564837478665,-3.506988426159751,-5.0950450043878766,4.931262423874011,-14.296241983527608,0.14068143622976415,-5.650471144213429,1.3929260762595277
33.45614667372483,-60.87711228025488,-7.788225538237867,30.98344651865514,3.7331828137900516,-11.272578430322199,-8.258996300060197,7.900048439849834,-19.25803251898074,10.114095494250087,-6.921799162731052,7.799686809860191,4.1535333911954595,3.5170640267244266,-20.120780355097338,-2.9329564418066485,0.8224612868458976,-11.642322736864472,-1.8187063149892175,2.9747058112026465,-3.1006582655178363,-0.4108114725053156,10.450106758998857,-27.448934202763837,-1.3006172442619428,0.4985733634553669,-6.7637916879679665,-5.306108676905097,0.05943949425886963,-3.159271177882033,-5.05348772278152,16.50914193896078,-22.00993802577952,-4.0256542465769884,0.3488615080695059,-8.561252958721667,-1.2652281546087067,-3.2969549265751574,-9.582042721610037,-23.27380863805603,17.678044103296664,-5.8385209361514185,10.291632063787683,10.35134888731426,-3.792164286464555,-5.067194223585385,4.9453972380307665,-14.358348957700407,0.07414518550476856,-5.632950364838731,-0.12923884511951655
33.23196053735019,-60.95228777826538,-7.056864944286929,30.983273072514685,3.5230267260618575,-11.396649092266387,-8.201393271717567,7.897531412262198,-20.36478340903409,10.21725800604434,-6.920233999648941,8.97705371001615,4.145923069244844,3.666523154838842,-19.464739663528746,-2.935727455168974,0.8230056632030772,-12.71209890754617,-1.8327838116528898,2.981550243275872,-2.5127015893681346,-0.4486255694740464,9.984310883902367,-24.533054945648743,-1.3015040711231902,0.49838779457180604,-5.814589665532196,-5.3379368160858185,0.023981973255605027,-3.2144773155648636,-5.02040408012972,17.282030798922435,-20.72189825723717,-4.010699381468398,0.3459538557369939,-7.547177814584025,-1.133885439513783,-3.352869856952023,-7.6285372382384935,-23.311373743309673,17.70657736133673,-5.847944604486052,10.377675015158802,10.763200504038352,-2.2536309883311674,-5.009442136742528,4.927490339312022,-12.73640365455666,0.001845378358089178,-5.646149324226493,-1.6366420233432564
33.607624075723066,-61.02413753514096,-8.049715089912127,30.934508717989186,2.758051064081485,-11.798218009964614,-8.220115206996017,7.90704939218801,-20.135716125758492,10.26276899816068,-6.957682777735786,9.534843609130746,4.11935967584316,3.248541657232863,-19.20536064523651,-2.9362024398725786,0.8252888112853154,-12.282931901944739,-1.8446478676456017,2.995723780418417,-1.6902986540445113,-0.43020191050949563,10.479539068328222,-23.82413747547801,-1.3061027679819663,0.49950087606053195,-7.704048525577605,-5.386683583663686,0.05359384211990381,-3.830054754563946,-5.044940647601345,17.23729396050409,-18.36605192696527,-4.014782749915621,0.3303705859298418,-7.03584250640327,-1.1628713947735996,-3.3506068583248574,-8.029165131213801,-23.32217921720741,17.714784855307673,-5.85065529041478,10.437168154425091,11.251990772600763,-0.8108051358169917,-4.994782642296844,4.9103521819315485,-11.959690272005012,-0.06365936316023735,-5.646880099092447,-3.1247685897281485
33.15620829319586,-60.95773863492951,-6.777940369310528,31.050155445330436,4.017593030120906,-11.150120854771359,-8.17911952140637,7.902572701553641,-20.746558590492654,10.300487985612605,-6.947435173590385,9.929009542540939,4.105941951617304,2.805184327035363,-19.604917500146826,-2.935915314366944,0.8239927319162356,-13.097113737490432,-1.8348738841661074,2.9875691668287887,-2.391666470309133,-0.4248561427142672,10.41642481550548,-25.466050783656968,-1.3052083079009276,0.5006604136632147,-7.8185160186583005,-5.391541192759792,0.06757385814041861,-3.9251168083977177,-5.052279952052998,16.904938500627082,-20.398972682567717,-4.013712456767662,0.3472992459543418,-7.6612711959915245,-1.180837550052992,-3.3320960735181373,-8.37963243088575,-23.324679224556203,17.71668378130272,-5.851282447983429,10.41866298332135,11.389974282212805,-1.321882361068532,-5.058962662792535,4.950944491871636,-13.948901227016762,-0.008633336636872713,-5.646906868891203,-1.9735250349540365
33.32375561707168,-61.04455539982121,-7.154848220359526,31.13434872957946,4.3060408679312445,-11.019936472187311,-8.234139394725766,7.924554238010818,-20.068185752952274,10.379739938450875,-6.922744872771064,10.714927714349528,4.087439776654271,2.888030711536203,-18.75392027324233,-2.94020714019632,0.8246217573233144,-12.771777594289123,-1.8280970315406435,2.991118563300696,-2.790805597847566,-0.4465929348736051,10.179245550131725,-23.587467795928575,-1.3073522395945414,0.5007826616786233,-8.013758887330823,-5.40487725619591,0.05036561952916507,-3.9137184926590294,-5.069293722089495,16.990341466259295,-18.532483477682632,-4.025305508833691,0.3440624788387998,-7.789304088484563,-1.2385912557149545,-3.333097933181392,-9.062231289976353,-23.350452847915736,17.736260605083547,-5.857748078165833,10.505374650572465,11.278617404245722,0.23729852353912406,-5.053084410546758,4.935082142090423,-13.373681546318117,-0.010178591316112318,-5.66318204369193,-1.8834938436012294
33.39960025712149,-61.01716035361341,-7.477399122193788,30.987488437435633,3.087858255355968,-11.63403560676116,-8.14411607302966,7.886733075237773,-21.290812064560768,10.256625105194882,-6.92754991578968,9.352369901343366,4.142475457640593,3.378992870585762,-19.66194187063263,-2.93778010208542,0.8249962054434492,-11.889053885632178,-1.8532311176327276,2.997593201882263,-1.276771588329268,-0.4156232390329979,10.607539042080703,-25.36417475369791,-1.3049748614797676,0.49936372628892145,-7.1271196211865515,-5.367869964238029,0.05511407898140419,-3.6436073039317307,-5.042517575215287,17.116589265435906,-19.672553613063712,-4.011565076317426,0.32897408755297963,-6.8390658092541585,-1.2337526027525705,-3.3305094121931536,-9.017258226655429,-23.324994245237804,17.716923060984183,-5.851361474792978,10.431562611838567,11.504292479010928,-0.7152565567177476,-5.051556278616033,4.920651815969166,-13.33433693811535,0.01839546785726931,-5.6572067299365285,-1.2190007738431063
32.986821926551855,-60.965900901320204,-6.431578044348413,30.936914644090823,2.7721539849970895,-11.788448237667524,-8.24915256789398,7.907651124796478,-19.651048002748553,10.215437757905487,-6.921529537328471,8.89732969518866,4.13145889758686,3.6786599942390126,-18.95948514736574,-2.9388247764527207,0.8255047169326603,-10.458307704977758,-1.8049739053539842,3.0006326954122415,-3.3938435685780632,-0.4256751671514536,10.296487651071402,-26.43340635449009,-1.305840645028518,0.49861100787472235,-7.532177141102039,-5.329589354095557,0.011088633363682376,-3.0509741903393888,-5.072617905859174,16.357723473509864,-22.091384630786393,-4.02337957155083,0.34812483192644894,-7.885790093332396,-1.2166429595667871,-3.3441889442259978,-8.669545271753691,-23.311563735762096,17.706721673554167,-5.847992266427919,10.335499692344726,10.48675641181319,-3.326874475311172,-5.076411488279964,4.936321131778594,-13.963327583678513,0.04866068248006705,-5.661607112728596,-0.4651824338348547
33.28994669105468,-61.004226211873274,-7.265103750920105,31.009013152154267,3.178601430633364,-11.586008952536702,-8.285885169066516,7.918699701753099,-19.11689870566157,10.24563899081005,-6.9127221727438295,9.25268038736425,4.164521052743165,4.815098815262729,-18.08187783196604,-2.9359149282225974,0.8236975509469027,-12.547220565589857,-1.8553350302272378,2.996837297554162,-1.1218514585157209,-0.39843350962398816,10.975163344766315,-25.849674694875787,-1.3081894779842496,0.5005037670617241,-9.16890767421961,-5.369836728806046,0.02430096620088662,-3.4801139039934696,-5.100786039362699,15.98921743871108,-22.04162939129762,-4.040835490014107,0.360322646839359,-8.931298596791962,-1.2721208824997774,-3.3350343754599363,-9.365315022857601,-23.314085005828517,17.70863675002892,-5.848624758011095,10.354421788649432,9.537093033582863,-3.4212538347659915,-5.135642609930679,4.937251291870603,-15.107616055459332,0.0009467375536083011,-5.652921697900748,-1.495594293492104
32.643207662975186,-60.799052001803034,-5.468227913954962,31.048008895537976,3.9822446094001975,-11.160493192251863,-8.303083863992832,7.914536418545527,-18.764772392736404,10.508204895615268,-6.885220238042201,12.621176965580048,4.14503563476125,4.444713913170631,-17.93231669835933,-2.938429658529311,0.826705679723165,-9.313818766396292,-1.881595863353672,3.0052962095504148,0.3565678949543667,-0.40916968289112,10.634146641316931,-26.395937257603023,-1.3043967137245298,0.49844831731869127,-7.400802641406159,-5.271294642080612,0.008890774808106627,-2.4875819921812763,-5.101498023100127,15.838838914755897,-22.41559716544421,-3.996272437342794,0.33194987795592823,-6.4804277813341855,-1.1332015415143388,-3.3777021695843983,-7.428770846217674,-23.298773777314235,17.69700682829544,-5.844783748160231,10.315003962355826,9.342128796543378,-4.004213098686137,-5.178677920402281,4.941186958434694,-16.069197525219046,0.026319165710050996,-5.6501069896219365,-0.970384532757862
32.873425352959316,-60.91312499504266,-6.036421951459545,31.169577182552306,5.119990951356215,-10.584364817938479,-8.418840317923548,7.9419294907265705,-17.20667850216313,10.610370418769843,-6.862054809403034,13.763020166328943,4.233508147224253,3.8568673634811717,-22.32985680049103,-2.9369549787806855,0.8198287683313737,-14.209300716951624,-1.8432170780968065,2.972344959892956,-2.2559993949524255,-0.4143532358383908,10.264561869038005,-29.263130744960264,-1.3089008120360204,0.5037239042222192,-10.379411136436602,-5.395965964619233,0.10977387219658041,-4.164912015350978,-5.094444161815289,15.716897448115802,-25.648862787768763,-4.067231198754285,0.3975935520579412,-11.248980596891869,-1.2310156601683495,-3.2822607666108468,-9.326629063482017,-23.32229564285099,17.714873288515555,-5.850684497219008,10.212970830937815,8.54865944378345,-7.2348553338462125,-5.210378397693422,5.035986583896087,-18.0861908442813,0.04047183834374657,-5.618609149065161,-1.0547393349487493
32.845221697851045,-60.85814148596624,-6.019776003353087,31.080983676023106,4.8107504166434865,-10.72707096723849,-8.356904567500726,7.929181019185158,-17.957803225328007,10.445451453609746,-6.855469825019993,11.750407857858704,4.244387129139689,3.713363289198014,-22.947611557236655,-2.9324158606131308,0.8162244066310879,-16.112634516486573,-1.792630996617719,2.9548756091403288,-4.814567034089009,-0.39245692239243546,10.530459292958142,-30.818570681872046,-1.3055219273412726,0.5031715978707524,-9.603612257759664,-5.384876857483871,0.10273047362638543,-4.042196071775493,-5.04404772210733,16.244437985384153,-26.49053768301937,-4.064761820589274,0.4151856724058165,-12.072088476000161,-1.2844546087010116,-3.2673560428433692,-10.017394647534786,-23.300752960711662,17.698510152993286,-5.84528025064031,10.160928238047806,9.246473059608093,-7.702379367446838,-5.229992776660896,5.076062498290649,-19.515230745870486,0.10854616423016061,-5.614324848894782,0.39361165007181853
32.599747799643296,-60.853844690742086,-5.351548050694873,31.038423368664898,4.3454578230571315,-10.967006862038659,-8.236059008122876,7.889309070765643,-19.879683335274535,10.637680175019952,-6.817390357200195,14.099047606643921,4.228227228735822,4.141579246650451,-21.429331253557393,-2.9343749017839267,0.8204369679016776,-13.852710587946753,-1.8227936740306276,2.9735117746364326,-3.077499795577694,-0.42064169508990545,9.981836576322507,-30.247001396382927,-1.306321676698223,0.5009991507461294,-8.804532490737415,-5.343679597096429,0.030481814508283023,-3.2698254281980894,-5.083110524964022,15.759817538578062,-25.95081649365855,-4.058384185436369,0.38209586157112696,-10.43130373799336,-1.286686332199043,-3.308230778078663,-9.733228647518445,-23.30577588497975,17.702325406360814,-5.8465403129253595,10.211681839678171,9.378890412621772,-6.748233881535981,-5.214798531584336,5.022963666977274,-18.14342297066353,0.17735427631719247,-5.660861202319909,2.2889652490761137
32.59899175111978,-60.83554161935947,-5.21296395805507,30.99143424652296,3.5071383849214612,-11.41137118658827,-8.155691734685957,7.887123480797434,-21.149485400237594,10.420264776800007,-6.870405580925985,11.28446896138962,4.1875009465844535,3.8324234500161083,-20.387074781375816,-2.9423036829561156,0.8245765387173248,-10.183491921559995,-1.8475182932582417,2.9861264400110206,-1.8104411078775229,-0.4165086919831609,10.256866821612391,-28.486328907936823,-1.30233176640026,0.49870185075032447,-5.806322824193188,-5.227737945869077,-0.009849204533340483,-1.8627516599635214,-5.072548971757331,16.138230631207463,-24.536659256208395,-4.009677289505035,0.3512785713879172,-7.455003222380057,-1.174312573084908,-3.3742370570385747,-7.931672408786767,-23.324120249008992,17.71625920127257,-5.851142222097465,10.268215287638046,9.780861934686868,-5.552359620791293,-5.164412000418652,4.992729695769399,-16.602847110068524,0.23079666933163523,-5.67872833305162,3.65297276841369
32.830040626742885,-60.859851705094215,-5.988562112716238,30.996324177802457,3.538653586794453,-11.386892791401948,-8.004424358791873,7.837015989724861,-23.31750555395726,10.259286343954106,-6.896517227038927,9.4631686269542,4.127937426776221,3.3971150659239697,-18.997731431230534,-2.9404683868616113,0.8294102159450287,-7.451911635820636,-1.9107190785467232,3.017137507181324,1.9673923228032208,-0.4443877974861543,9.684442838909206,-27.640085025148053,-1.30140196471434,0.49364874131757386,-4.143708059040449,-5.193049189308937,-0.10443720754206609,-1.140026377851143,-5.117414890697025,15.638267772701482,-22.159932471450134,-4.007770957515985,0.3049650117007321,-5.801258954617772,-1.202466607002851,-3.4270067670850723,-7.8395922893915895,-23.301313294861412,17.698935764977072,-5.845420817348067,10.5291087565912,10.178866268086466,0.7317234612387153,-5.233303088549996,4.9263627055423544,-16.87125901504713,0.14030138675593662,-5.699081925359284,1.9910851191752386
33.61611434155317,-61.01051529496723,-8.095922374258095,31.019146420068267,3.7242683804972216,-11.298091823695074,-8.134681537053769,7.873324773289361,-21.451538502028086,10.43464042524268,-6.885586837345734,11.616112497906158,4.137020709600133,3.639650443181722,-19.077485137092765,-2.938752239113463,0.8267044496602065,-10.405762063823424,-1.871898205220278,2.9992824021614304,-0.35961554952206143,-0.4294171790433676,10.21319104686495,-26.428577322058217,-1.3070169125681241,0.4981477623934391,-7.457106786783413,-5.340319956500071,-0.02540412775707601,-2.9452756133336493,-5.12466519489526,15.784231805401973,-20.9378627187034,-4.029271953081155,0.33274829841594755,-7.490775984142459,-1.2573769896641025,-3.369508690006943,-8.941239070334973,-23.319643863368782,17.712859081253256,-5.850019265743473,10.506279478454685,9.318886753853434,-0.3081133532386957,-5.133186151320469,4.936188457377163,-15.165734409875846,0.07782699287017181,-5.671748746071662,0.33634917965463274
34.26255241152987,-61.25599827736819,-9.675458014683642,31.081707478683565,3.889281529385471,-11.240995143868986,-8.330636219573815,7.941020767187158,-18.81428121692889,10.263517342730928,-6.9654074792326135,9.238752428760222,4.287475055612191,4.06369137965595,-23.47857146303977,-2.9379855110751807,0.8208430269879567,-16.597210487297218,-1.8186529559056837,2.9836687731748137,-3.424371807704574,-0.3951640900125888,10.672297047977452,-29.799859163404506,-1.313892366521785,0.5025887446832146,-10.36631563692066,-5.425947973969187,0.03578566376580916,-3.9832935133690626,-5.09950014356759,15.826104971942343,-25.44992119038858,-4.138764702429274,0.4025689105862318,-13.706553948452935,-1.4167876031468793,-3.279682797306413,-11.490277720450933,-23.37391678152302,17.754083062061447,-5.863634294287113,10.28322613923417,8.852527602585653,-5.959604947759544,-5.1993563795344375,5.023478535841008,-17.30741909059553,0.09105934218915657,-5.670755813363048,0.32759892743274577
33.81930471513381,-61.2123509306709,-8.672386311960537,31.034610987674952,3.705324185941606,-11.319512044354042,-8.345619751634842,7.953656085577825,-18.311331838227773,10.181892079314864,-6.962992056365016,8.322745335872185,4.230941812668068,3.894051835445225,-21.621457363515447,-2.9402057763113985,0.826212007024823,-11.632369657446745,-1.8573543909400438,2.9948036197093453,-1.3453244840678735,-0.40162225648253447,10.527055912099456,-29.418978972663595,-1.3082626834460342,0.5014861264188308,-8.771034438480797,-5.385624509110595,0.06390256551502205,-3.827358200723438,-5.0349780307429155,16.60131764285599,-25.582180488292806,-4.045634281720115,0.35691627697026007,-8.993502763701969,-1.247245272119315,-3.314620434724013,-9.305493218056995,-23.341472549318524,17.729439456159167,-5.855495259893844,10.214915665812002,10.136692460470343,-6.373556950952604,-5.119141986559387,4.976124296573005,-15.349234839552587,0.18564736091768452,-5.67242167410281,2.3858098527935
33.871368284287215,-61.187603659429435,-8.84244129836955,30.969033742452392,3.181100245583707,-11.587240680377562,-8.305347828611438,7.9215878741435315,-18.974706203337945,10.193615439244656,-6.940990536066549,8.504671118439262,4.214002574496153,4.16655852094658,-20.887436848724917,-2.9356922163052146,0.8204278656527242,-15.394119503473,-1.8097809765457509,2.9677614138313606,-4.087706328794809,-0.4041862634257747,10.71032062129774,-27.52409295939613,-1.3119236585767093,0.5053472968708389,-11.787836445839076,-5.523476891162829,0.12642846831659682,-5.5048578167415485,-5.011531952630569,16.96657194534974,-25.70935503473234,-4.079987537806179,0.4261362578454406,-12.623882444748304,-1.369134143122718,-3.219666482965766,-11.432912742397946,-23.335014536659433,17.724534155341853,-5.853875188047715,10.084962035283738,10.666302111305782,-8.917987285538516,-5.144489583458251,5.0788218995686005,-17.654902147055203,0.027358532737954633,-5.620954664478779,-1.461968600585692
33.73816222440341,-60.98251781581651,-8.53751637454235,30.95676645428954,3.5418060522069936,-11.37568952429217,-8.350428383246303,7.930635330874496,-17.96986814166894,10.134221791533374,-6.950540421885872,8.071431601592224,4.202154895257312,3.696606595976789,-21.630300286892577,-2.931745638918856,0.8207764007710355,-13.64225459620878,-1.7942272392708727,2.9813523831354134,-4.114833378325272,-0.4070023101850442,10.543646403876721,-27.75875132713449,-1.3054451635006845,0.49709969845254925,-7.364760306037965,-5.241470059476072,-0.04498607472280369,-1.9259283230857136,-5.0846740743566174,15.843348218230204,-24.48245149009466,-4.0470544109197535,0.36002121816128607,-9.235529289731375,-1.2286507171678096,-3.350074443220575,-8.733388031479592,-23.288091462250765,17.688892881852883,-5.842103958138933,10.269038737517743,10.015066998996033,-4.855521565319947,-5.135398340263989,4.945758539250324,-15.310104851004027,0.06824038812501065,-5.661552393145311,0.023344898396089775
33.758069889752406,-60.909376094385586,-8.758654761035388,30.840170242146964,2.7629839907888254,-11.756684184877031,-8.107938891546745,7.8476375424224285,-21.46455144753328,10.227257979584515,-6.863599270604739,9.319301095145363,4.149538722924078,4.4155021662315335,-18.482101099262934,-2.9294482858765734,0.8235174390299984,-11.24070016874456,-1.8559328246724895,2.9890725798802267,-0.9155117101674932,-0.4257690208133873,10.341635046293732,-25.411066367050452,-1.3013031037785274,0.4952874502349797,-6.1677029328390915,-5.295141626353196,-0.037085290167839347,-2.624564977536295,-5.026417646036261,16.838426292161927,-22.132355325543728,-4.032741548704861,0.3398741105791059,-8.337015385396384,-1.176100116374947,-3.3566649204106715,-8.05373360505314,-23.25172986975734,17.661273773789254,-5.8329822057718115,10.24384046786337,10.711066265407212,-4.430284154936288,-5.011319131227583,4.8652918156803375,-11.993612351453645,-0.024699538025114265,-5.648595978630096,-1.9963540310715189
33.386147607339836,-60.72842126810782,-7.65064288915778,30.82263018616159,2.576315165434437,-11.851502231427077,-8.140842126699631,7.855373516271415,-20.89948615065039,10.349614604877782,-6.887277709508665,10.883885219262083,4.172316052321982,3.9707493420329456,-20.384319575024165,-2.9284469083032376,0.8228466773541953,-11.25093297433665,-1.8541322740107127,2.990552526740169,-0.8784757488228365,-0.4352822027478336,10.162170194271994,-24.858473515191378,-1.2984821824171497,0.49217993580578334,-4.265346385523316,-5.1066518198819,-0.08375650688254233,-0.5681922726682842,-5.064011765516391,16.32405212595323,-21.634250033850975,-4.031698364589095,0.3356047619635998,-8.20062854934551,-1.217782575151773,-3.385995143133191,-8.270160662220292,-23.244371799350077,17.655684817758697,-5.831136343377959,10.218759990144804,10.501061088494026,-5.20037387912862,-5.023273104584638,4.876730052558271,-12.358159646548774,0.03800224698389343,-5.6712660752414354,-0.34148779443899
32.46792732792674,-59.03475997264908,-9.346184050683043,29.00844287130524,-2.4664075238636087,-13.889073569944173,-8.431961016989536,7.549547779533623,-11.452826975138318,9.639911145915287,-6.56319199092518,7.074214916085893,4.873642848555006,4.909245153700525,-54.0751274597946,-2.7355266803175606,0.6761488777945971,-85.75492429335628,-1.0926158156138572,2.582299909607813,-36.708930657445094,-0.2222682742191573,10.97291385995112,-61.68886089867517,-1.3339210216951403,0.5974631178202262,-85.44717372642121,-8.205758515660063,1.4513013431108712,-38.854821651920616,-4.601451738616843,15.494024272057331,-66.06710568933346,-4.803122745608504,1.6788063618911346,-90.1103873711628,-3.603245409641799,-1.8046575682139059,-45.83687505246034,-22.308082679790548,16.944509409963032,-5.596256710575407,7.92991151952906,4.131592116918789,-61.870172994352004,-6.5113965672792204,7.016107336296163,-81.14416488870039,-1.4180465816495498,-4.930894487152864,-34.632342539338595
33.27115427687464,-61.00817476694404,-8.63250337277821,30.341665148798153,1.095738665573748,-12.492183032135372,-8.83451648684228,7.82446060165138,-10.302330806894496,9.855247442622076,-6.767357204363623,5.792584833136615,5.073703798533337,6.376471766334902,-53.02477982275772,-2.8314508767321445,0.6868208197541947,-95.80138475229843,-1.0087668929829512,2.5200767008097475,-47.25400961522337,-0.15661728563240995,12.802424835477481,-63.2410726989672,-1.389013423535661,0.6397594168008902,-101.46220953699122,-9.095623545871902,2.0187406518793876,-48.655087835792074,-4.722152750634924,16.410807156384976,-67.2485304485869,-5.0001741201521135,1.8938356657530548,-101.28035153264904,-4.024199333591347,-1.5001545285180966,-53.74727510655066,-23.094222660056197,17.541636311646634,-5.79346958642732,8.271627501750244,4.459339741709073,-58.20382482909166,-6.761675592797057,7.513231590989053,-90.0372030281496,-1.6206749522522341,-4.881127407317372,-41.355402180104306
34.159285023351615,-62.04433656675823,-9.85835894352374,31.18374659378865,4.823075600214736,-10.789930152596284,-9.122146120143729,8.003637025857358,-8.077739233711162,10.2204161796876,-6.985655894767786,8.677127917578105,5.22873450399474,7.150580732847445,-55.05943302389957,-2.8757643901676246,0.6948429994373151,-98.91107049321454,-0.9618391584362187,2.4513695463538117,-53.88535543634234,-0.1394157133238796,13.391174704508998,-63.96702354933642,-1.4120546216683107,0.6536779119635042,-105.61368532136896,-9.46418934536885,2.3169959577342167,-53.14421529247964,-4.765583563699412,17.12475590544168,-67.03069659579307,-5.0920070274845095,1.956880824003647,-105.09038898390651,-4.214986405297096,-1.3278638131792029,-57.74120742659855,-23.458153967464334,17.818066946741965,-5.884766227672059,8.341641707479337,4.8377399065577436,-58.80441884003916,-6.890945207020508,7.810985567499626,-95.86488297960031,-1.7833656944482468,-4.798435209990337,-46.605921014261995
34.04312387825017,-61.9578640573737,-8.671921171937406,31.52058007677175,8.314990936917013,-9.035795925699063,-9.326268806396374,8.088079831063709,-5.623939225963603,10.221530871630184,-7.0090344035703165,7.950648887520856,5.268952422321179,6.906684182515917,-56.63444986220583,-2.889353111091959,0.690878767784765,-103.17033284614728,-0.8520672786089623,2.309318858962582,-63.68659420375164,-0.14791365658886946,13.249933040773811,-64.61178292473883,-1.4218141676602662,0.6631767179190093,-110.13743409185452,-9.84236642800253,2.7221940600728853,-58.84109061778379,-4.780179276987885,17.281192378096293,-67.65767753927085,-5.116248697872745,2.0198962734486,-108.09302626705923,-4.38931382130848,-1.0790484158863407,-61.89332846413657,-23.574225427139876,17.90623113229877,-5.913884179870171,8.355964947972844,4.2226944647695674,-59.55081126475608,-6.966408057466238,8.04705087775102,-101.4945942290067,-1.9593514628433741,-4.6556056993803105,-52.141219456377016
34.4603126882717,-62.915443771799374,-10.55535063611967,31.405521648468458,8.684718348302454,-8.842093023446239,-9.49853203332076,8.177456887892788,-3.2722433445379444,10.169448477586943,-6.8773162651558915,6.165144714804001,4.985663968364978,3.7860287020651526,-51.510332744748894,-2.901904052233305,0.6991750637046213,-99.21237526189803,-0.8498615602844204,2.2659888974922953,-65.67306065905052,-0.31378799118361655,9.81319238930152,-64.49289874666346,-1.440982801973172,0.6772812241158522,-119.77265320870774,-10.796010956353932,3.3787027146083544,-71.63163523160901,-4.9427248382962405,15.281103124119753,-68.80124765085202,-5.222264720434456,2.1644762565162097,-116.33653283986706,-4.836292375893455,-0.6556091403965976,-70.65559873272122,-23.649723036855683,17.963576713137517,-5.932823683143968,8.395754058769665,3.879858143203876,-60.19048971449391,-7.236517896227505,8.279032063047094,-109.59566750785169,-2.222006654139543,-4.48879482366471,-59.768205659994436
30.838846113653183,-60.15842380312104,-0.7186814794869463,31.508611461791894,12.342409144236399,-6.7662720451077405,-9.59970069237334,8.161966499686695,1.3852219428558001,10.880641163586493,-6.893411922187197,17.590986261567707,5.126228213438377,2.76799055722347,-61.86784021573783,-2.8330382532748684,0.6714445854639911,-108.55204692126199,-0.7635384755149754,2.2269861531329136,-67.07981340725297,-0.30925611834086375,9.416667826917603,-64.59019599552786,-1.3991659522750126,0.6511459947116102,-108.34578255621815,-9.886447075949423,2.930867527529566,-61.42494321927313,-4.978878537273574,12.962665969373631,-66.9103833031622,-5.022525368762958,1.9808819871620207,-106.43362810929509,-4.414202092401396,-1.031350058947326,-62.16934929045681,-23.196030650581278,17.61896642013785,-5.81900937208655,7.98106492462426,-0.4423763623290853,-66.24626680683912,-6.988367991824737,8.20591159902529,-108.39585500214581,-2.172979715173165,-4.394307769527975,-58.314848066250505
32.68812840514973,-60.96069579694947,-5.624956387541857,31.611031512513424,11.558525621983733,-7.243474681201235,-9.521621764842697,8.178477214177848,-0.5590754524299797,10.660600226174974,-6.905879859392191,14.124356182315637,5.167081784690744,3.332872727007725,-61.95823390743129,-2.845110262594153,0.6798034517971686,-107.88748548308794,-0.8749333871176805,2.3157606470041205,-60.7534307884672,-0.2937448830102998,9.715078261392364,-66.43530013634194,-1.412496595421227,0.6541176315638783,-110.20998705918319,-9.923059632833468,2.941532135206412,-61.81835503895462,-4.916657848809002,14.236647659067728,-67.88605127898322,-5.10617640241553,1.9570976950412824,-106.81182247739555,-4.404127742831097,-0.991366997963322,-62.843128999155226,-23.319851544535673,17.713016829247827,-5.85007136511775,8.129710843165721,0.8520688069705074,-63.396764009331434,-7.034423174125127,8.054205413430271,-105.08734323813805,-2.094847188260733,-4.403813469093009,-57.394724311682864
32.93131916440875,-60.9890002314283,-6.227886683805053,31.65043785149013,13.52379360343042,-6.219380884848675,-9.524440120549237,8.147215704350517,-0.7284336169635068,10.333692935020348,-6.963205214658407,10.278810829593112,5.171567773946855,2.786243462048276,-63.385251118843655,-2.8482509669360794,0.6684695621586279,-112.90675500578304,-0.715875369736036,2.163630193520918,-72.16651085484062,-0.2913905385744311,9.572881493403656,-68.5593361139338,-1.4150005123191576,0.6679084677075218,-117.32232702040999,-10.370523992699255,3.3241392672173173,-68.13173636499954,-4.880026462500257,14.624483991827361,-70.29594560461638,-5.157962730360536,2.1361559237835914,-116.20503634462271,-4.774879430378782,-0.6210903281114959,-70.0922828114978,-23.330341418581718,17.72098460361792,-5.852702878945069,8.082072011523477,0.6494880213875973,-65.04353559124723,-7.11177467879172,8.356021698788133,-112.57683181357083,-2.3349491421737962,-4.237945702596306,-64.1804276813262
32.695473798381826,-60.79823603301116,-5.416959396862438,31.679699771116752,14.853879808947624,-5.519899658146159,-9.621800347903186,8.167344010561196,0.7901056705430989,10.547725674707792,-6.984194662501545,13.100295977679707,5.171878281982725,2.1610982039812257,-64.62841430663326,-2.843980393704949,0.6630679362197759,-116.53891187773331,-0.6892115838215176,2.1353745766884393,-73.99770571098384,-0.31589266726541254,9.108416374975377,-67.40683671132243,-1.4125434897921723,0.6680977263088784,-116.76979991706813,-10.369275271589991,3.3215371112498566,-68.07477229510744,-4.828714144571549,15.333604149049151,-70.1658827637454,-5.148810812912489,2.1645559953750384,-117.06366790689962,-4.84704105333973,-0.5505175714333577,-71.45071222754638,-23.324480098440237,17.716532531440272,-5.851232494750497,7.94032623446423,1.9362165790684998,-67.45211964954333,-7.122134569544715,8.43233970172501,-113.97901429020871,-2.453253468893191,-4.175126703860478,-67.24935614590197
32.96412855033133,-61.029946496160015,-6.330826291960321,31.543403459894225,13.80031060481781,-6.05531580650208,-9.463133356835204,8.114671899231725,-1.7724716879519171,10.383332382497208,-6.883855573768657,10.833544727650974,5.1639147389529185,1.9863073318575175,-64.69880221119422,-2.850354109374373,0.671023378232792,-110.91464300166989,-0.7220576627033743,2.1732532029957485,-71.75261941036882,-0.31636907307617435,9.135541808324604,-67.08519409805172,-1.4083263260229009,0.6588289124369205,-111.0817714070089,-10.074157008850499,3.139096677464268,-64.23108220641916,-4.842251782863758,15.101379714495621,-71.02824177232512,-5.130542750608895,2.10694690466858,-114.03821944028626,-4.669961865914658,-0.7220529689229194,-67.97093838039558,-23.33013155488854,17.72082519783429,-5.8526502320588305,7.94473801738642,1.3074456200603777,-68.40217068846242,-7.057229188976826,8.245134160350874,-109.08615367213432,-2.2517129189449747,-4.298524631402482,-61.679309530976695
32.980239903737285,-61.092377689694786,-6.317450373116543,31.5547651075945,14.358450582484352,-5.773283566010377,-9.418434728450592,8.106102074042266,-2.5510276865232377,10.282500264840426,-6.872998761506462,9.405231150998361,5.184199522923141,1.3610313695546097,-66.60743962100753,-2.851363642789038,0.6670964112567865,-113.4448974627946,-0.66221368310622,2.1335119458576983,-75.7290119254564,-0.32275925246006487,8.84670009520272,-68.51918656606851,-1.4096254202918295,0.6613386907854799,-111.9957911201333,-10.157530475239252,3.255112427158977,-65.74752696252364,-4.821030185509455,15.405228991569118,-71.84449067444044,-5.1315453126598305,2.133967988637327,-115.03743638719031,-4.748030166141131,-0.6411997890250083,-69.57820640920261,-23.349499484327506,17.73553646044815,-5.857508915193406,8.001188349353761,2.2959559488886754,-66.50845332170793,-7.080112334612851,8.332421052077812,-111.02922495690106,-2.3085220493151475,-4.248986769192214,-63.464069919381245
32.87468896705954,-60.94427435241519,-6.174887787841172,31.587491205196695,14.654769432878197,-5.607662185555,-9.376520327962453,8.108724958448123,-2.8240020696771175,10.249698718275145,-6.827980068800035,9.14090179042347,5.1160823819254375,1.5245627121789767,-63.7536307675735,-2.8501785457380473,0.6759040079515376,-107.27495981456565,-0.7526923295712056,2.1866617725317163,-70.02613257510905,-0.3571730497261303,8.551972904742229,-63.593903225523874,-1.3973504711676492,0.6486376652044785,-103.8924237173426,-9.735154178218941,3.0036866684298467,-60.44256867714466,-4.864537649412406,15.164070556208316,-66.36611979628287,-5.00293436047013,1.9904069293214537,-105.58257004851636,-4.422949289714801,-0.8284612450987296,-64.38500730827354,-23.3050813285715,17.701797843418376,-5.846366074915013,8.197817003582438,2.2021153876784894,-61.556820567682095,-6.859571162009278,8.065432905012687,-102.90205456950511,-2.134950489540648,-4.338803286353951,-58.9421854245179
33.3540840062556,-61.129167387328536,-7.7059507670979315,31.371877415369998,11.555955979448186,-7.204048570389887,-9.270988444467356,8.088623570989414,-4.2853581143817046,9.978854768514761,-6.747025466185459,5.653257904243787,5.115179146413595,2.1046732659613667,-62.36153958383744,-2.852758666329594,0.6819869727188126,-102.9213797482711,-0.8017445480700918,2.2194295604433374,-66.84801945032541,-0.32539157506239214,8.967948421495066,-66.47284632396926,-1.3966865866575564,0.6474906719030514,-103.13628426317571,-9.787048547153912,3.0754421579379017,-61.394439029834416,-4.858954397746379,14.983328280821866,-68.7113025535019,-5.012883166149204,1.9831650073366385,-105.56653428335926,-4.418245056273129,-0.8236995114945191,-64.33690502370177,-23.293657606235303,17.69312074761444,-5.843500293767339,8.198868372496372,2.3060739579228056,-62.004957333346425,-6.883057707469071,8.003653415578064,-102.09240424655971,-2.0737228855789667,-4.338098473225954,-57.76451253338064
33.014180592645765,-60.90841566260519,-7.091860104042766,31.212172601449307,10.866420255412095,-7.514483419073883,-9.198487099393322,8.042381134900793,-4.95314614925811,10.08650223509516,-6.7545673820541134,7.533277040783219,5.068697258558043,2.816774566966444,-59.599428259639524,-2.849576078871994,0.6876509745770332,-96.5240890584278,-0.8259338075196503,2.2507475099701195,-64.56544609826369,-0.29260537995554436,9.73574862679277,-65.19390968448901,-1.3908180539694406,0.6409941845383169,-100.63588834000792,-9.586574428760482,2.93507155206696,-58.91214756051039,-4.857458614686156,14.906894836796695,-66.7062119411153,-4.936438443831375,1.8903229140820557,-99.59551147233122,-4.219613531996206,-0.9552990177804404,-61.034193057465075,-23.21200991581481,17.63110376128381,-5.823017967160433,8.273806361471383,2.107584940202017,-59.60180832968351,-6.7919540505493305,7.860797330995868,-98.3336460804747,-1.9422003539119093,-4.382411046694809,-54.38614405816509
32.77972751176812,-60.900278967054724,-6.246989673251136,31.403951664019736,12.647362800192354,-6.61644196473074,-9.223023215780671,8.053025553210803,-4.835365072570504,10.083617160923179,-6.793130835341168,7.335882807495466,5.045917868016122,2.315032760063218,-59.71961440544874,-2.8528774574510805,0.6854492694425065,-98.52359841710688,-0.8229446442258457,2.233938979822166,-65.31074412851711,-0.3094366206295813,9.437265628908563,-64.63045389732963,-1.3895721995355519,0.6421148387254951,-99.74081735292216,-9.605065106275443,2.9985798467493865,-59.36179579178673,-4.850896569542274,15.144159556684315,-66.27529501243609,-4.932336700804715,1.8986397264188568,-99.70608125789659,-4.2483418330352976,-0.9094879885692873,-61.66373831716561,-23.248673538122294,17.658952281574805,-5.832215487418985,8.347605290846627,2.5877213083397095,-57.648355109523905,-6.817999583899947,7.82989762917827,-97.9153190434225,-1.9220988784942854,-4.360080436546466,-54.24812496321232
32.90092003377784,-61.01592494639336,-6.735206606752939,31.206169079342864,10.845006077024493,-7.535237747640423,-9.254161328353515,8.055334765870143,-4.358041760771616,9.96858610281053,-6.709064397579251,5.7246031794817895,4.970652453291859,3.2108982073359016,-55.191987295482704,-2.8575887488684333,0.6940434613915947,-92.96056270999232,-0.8869311346424755,2.289265453435722,-60.98823976238748,-0.300703657837456,9.832655757533985,-62.91838954450505,-1.389849941723909,0.6382529564657451,-98.0072837248102,-9.542205600034475,2.8879031660926646,-58.18458677889066,-4.869310449159731,14.994337623208395,-65.70611017096405,-4.9158302363644175,1.8511669824181238,-97.02270387742625,-4.142615151184742,-0.9983312135682549,-59.799734525931,-23.24505903698025,17.656206821582597,-5.831308745383925,8.309383393352615,2.160951635740716,-58.64016664035181,-6.785207165027356,7.7677152877622895,-96.06254356589088,-1.8766442662865934,-4.400593484152355,-52.849894776276074
32.99824480387775,-61.170254553372374,-6.924310411744784,31.349385478257123,12.244380525497206,-6.832436998836272,-9.319840945034386,8.091666090180274,-3.5113996892847297,9.988654109244475,-6.744761634118009,5.702220196056544,5.002769126571,3.086273750026294,-56.65091586477479,-2.8600782289120095,0.6927761231917464,-94.99519078506873,-0.8719217213861565,2.2864646190823055,-62.071033823730204,-0.3154095539276387,9.576904067358385,-62.58198754823772,-1.3920356059225083,0.6387041243129731,-97.73249018257751,-9.620023435909651,2.9653623745934663,-59.34576418054087,-4.8884022574860735,14.921955821379882,-65.38160308390766,-4.942893945311811,1.863453048097794,-98.19339684628058,-4.186689591092083,-0.9938408823937621,-60.36136808556398,-23.283045648274147,17.68506024219319,-5.84083815368892,8.32185659789123,1.9783205260495436,-59.04788785520748,-6.833986373819239,7.828479297689454,-97.71400243212929,-1.9393950562709001,-4.371743687749602,-54.55389682416336
32.575940707187144,-60.59822861451659,-6.3060884126177115,31.079657776044897,12.017558348015143,-6.845320607155628,-9.176059215225985,7.995457844861272,-4.667035182656246,9.909891557009235,-6.700807585525887,5.655066578636138,4.927153475759262,2.59329278016844,-55.362126005344294,-2.840016042937269,0.6899133188275121,-92.53777863379709,-0.8824535168954792,2.2862941473526694,-60.32920885556325,-0.3269208094169631,9.246534041627797,-61.49597669045629,-1.3805222120504754,0.6321753162697087,-96.22595202808415,-9.457891452517114,2.862903644376077,-57.53884863033471,-4.864762526306487,14.62022817290719,-64.89001335675306,-4.9013606593264365,1.842974244288654,-97.18376481513158,-4.153752062568998,-1.0303210731987598,-59.45045109899826,-23.10454421700547,17.54947623772396,-5.796058875840058,8.248886228879652,2.1685215837372027,-58.75490450781079,-6.803724195541827,7.800471438678726,-97.98188228643446,-1.9812569642278337,-4.3411777961159626,-55.17355255214369
33.059048723894215,-61.0145043743794,-6.826894381831195,31.572096794291404,14.279923150569346,-5.796396349912698,-9.379400039422718,8.117096595163593,-2.618588042973819,10.216769565637495,-6.79995459672411,8.69840714993245,4.933861609621143,3.057871850552999,-53.745943928539816,-2.8588666126953663,0.6923166935493645,-96.47030982961924,-0.9133635320003819,2.3004725426213675,-59.69532981556648,-0.34538180661090045,9.288952115125255,-58.95004508131619,-1.3921128083020875,0.638027338638515,-97.63288234387399,-9.505931031117917,2.8501172992875343,-57.53259140814174,-4.879148061019575,15.401190939564628,-61.856967267985965,-4.924640752149571,1.8347014015582817,-96.56874981404471,-4.114941699599388,-1.036706381201764,-59.2495905895899,-23.293668502215166,17.693129023863314,-5.843503027156441,8.450057524622377,3.5009246188069483,-54.406106639094304,-6.756430572598654,7.740148786486071,-94.67435020989764,-2.0221416741991725,-4.406754603818271,-55.96149361553398
33.30673168999206,-60.843410195134105,-8.151310562397029,31.495956054342354,14.96822861653419,-5.371757987883626,-9.012765016124217,7.994018537018876,-7.352172144578962,9.98872191709756,-6.823252216432038,6.768178819382513,4.988021678714745,3.1641759869229986,-56.58020409971226,-2.83807933223083,0.684354114021556,-98.79779134612518,-0.8900666827237789,2.2753402423621374,-60.363615944776484,-0.32525440512178605,9.252291805952837,-62.4590304475324,-1.3883315072541327,0.6380242087349579,-100.07846605576404,-9.53710218162555,2.952094119491033,-58.69804815047223,-4.842655990396219,14.97404011796553,-65.91183059457765,-4.986564778525693,1.9051416287332605,-101.88732071626303,-4.330211588770808,-0.898254109888768,-62.755276512522215,-23.154907723670533,17.58773075403194,-5.8086931804631154,8.192146190870279,2.9744629879105275,-59.023660008612325,-6.854069552193064,7.801563408749643,-97.86006213849552,-2.1755363495583904,-4.2836247167978065,-60.07565390194338
33.52526317036685,-60.62610127811865,-8.514510461255071,31.293527609710665,13.60986517523196,-6.049856717800338,-8.79665473518144,7.919722636323419,-10.56252892413788,9.75120251749393,-6.762689314752054,3.7555941292228,4.830132639965441,2.513696020982991,-51.22125351685867,-2.83704951783446,0.6876858919180796,-96.420871323452,-0.8579640200274614,2.263237632264855,-62.038416839614854,-0.34272400582780804,8.930536641313466,-59.92904515081746,-1.3864609713626503,0.633649889579282,-97.57360484446767,-9.52637243813356,2.928684753861571,-58.51709305404523,-4.799845663619107,15.618265408754496,-62.739362236468935,-5.013332343198604,1.9168095705914556,-103.5882674283014,-4.476367737904932,-0.8656468418391121,-64.62242417873532,-23.136421773470367,17.573689414772115,-5.804055752659888,8.163249773591357,3.0190872568963414,-57.105048072709565,-6.833758805491792,7.884139268806995,-99.44546497406267,-2.0980484979261043,-4.311251991311394,-58.04861440142349
30.137570917008897,-62.381557268928084,2.111323785370388,30.619477771050626,-3.7165959358652003,-15.317074785384008,-9.096887262149172,8.239547074680475,-9.443171179753032,10.490110394065248,-7.1642296033863895,10.472638275408244,3.3544415466589097,2.7318067807152886,6.17383179978205,-2.9791331189284556,0.8362823569375364,-18.170242514407533,-1.5385138805851124,2.9780957351586674,-18.406985526078913,-0.6841232377117672,8.620715840545245,4.198855603842713,-1.3343441823047038,0.5126583829338037,-11.26699841952032,-6.476055170573021,0.2682973381769189,-14.39590674308019,-5.3536234321741905,16.938721880452647,0.6756123509284038,-4.171884211242967,0.41800491789704297,-13.258084673361154,-1.6488628390944884,-3.2315372679715093,-14.841330457721426,-23.749674990334302,18.039497034951484,-5.957897859102609,11.26149650252433,16.697496217858642,15.378450642146788,-5.822187273780685,5.454636745237436,-32.48161076464653,-0.9281576186282465,-5.487321835258937,-23.09638531515074
30.88348854459034,-61.753527019130885,-0.08775333970932309,30.478734473924654,-3.50368415311047,-15.12122725576954,-8.839266541438827,8.172601869702184,-12.17174722628772,10.65488976097739,-7.078551608362268,13.242449459828265,3.54506504649218,3.4495573371799253,0.6673633106537977,-2.9623911431879963,0.834113890702366,-15.305672688954573,-1.6013389469033852,2.9933101372336344,-14.403193837918835,-0.6569879329374722,8.089895720968315,-4.034422750726244,-1.3259235588859912,0.507532928737467,-10.984905753281652,-6.058191160137383,0.16553948048811318,-10.337973835171951,-5.257001619987614,16.8124786320125,-6.106541394352043,-4.15009174822317,0.37317240703412224,-11.990159605304534,-1.4141959024003574,-3.294025699804569,-11.601818688182334,-23.589192934412278,17.917599974328215,-5.91763896302189,10.757622006875101,17.301206986294936,7.1307755451217645,-5.4155159560811645,5.171997395878048,-21.623896547678243,-0.5366796650203125,-5.578548649211986,-13.970451627492139
31.582206642989863,-61.736996000292166,-1.65605878137076,30.716992066040238,-1.9151731607709905,-14.331525999861555,-8.932390082921934,8.184370134311449,-11.110671074164834,10.784447134940892,-7.001779555112906,14.62525349839973,3.5944859950308388,3.1122698177240977,-0.9020571522184468,-2.971179476892608,0.8365203393749185,-13.266811126627616,-1.6838048529411118,3.0256771385316292,-10.295508664613408,-0.648990185885367,7.840545244311414,-7.655651392819465,-1.3226581836213533,0.5054318707551508,-7.513876592558972,-5.729925285477474,0.07189605123017451,-6.64705998367117,-5.23486290530704,16.818959452667933,-9.5310608446513,-4.100472316632202,0.3331379285374773,-8.126027501719314,-1.3048947937183781,-3.369802322434929,-9.777870952796647,-23.624200840630753,17.94419086538991,-5.926421126550321,10.637535575079506,16.098782073601882,3.302940212361648,-5.160259985518511,5.002919364161382,-13.859301526649716,-0.3134294500814341,-5.674580800911844,-8.606905329542272
32.620806054392744,-61.64599217604714,-4.246140883612185,30.769646213900582,-1.3991365208117656,-14.06992899203756,-8.98085438094792,8.163677113022413,-10.614871126035807,11.092187396079549,-6.939799960525519,18.249679546564032,3.689739367157401,3.6955227372861685,-2.76232150151327,-2.980943274501869,0.8405644808491249,-8.00677227096935,-1.803623222644073,3.061019990197777,-4.147888742746005,-0.6108849312873046,8.617450816278577,-8.067213777218592,-1.3157855125568798,0.5030571140087708,-3.57682835952194,-5.644077747713487,0.008052378046496944,-5.494006246934916,-5.219522571002938,17.16270064949149,-8.64676305035206,-4.033734898383386,0.33069052613189787,-5.480946605480796,-1.2711682958809236,-3.3939056735242334,-9.248035127847189,-23.62903535703505,17.947863010139674,-5.927633924407504,10.801521843739565,15.01518062440725,5.711279179865727,-5.160490515837386,5.038016921498428,-14.789717313372336,-0.2898689817346245,-5.684047048716219,-8.074580083047636
32.18485116565711,-61.0408390205786,-4.109522296255562,30.96321862353739,2.7512043157332755,-11.827514300869666,-8.76971282453394,8.057239848965182,-12.097817449751538,10.927335817450759,-6.817795646750522,17.657599482960023,3.7072007880245685,1.6638439480785792,-7.907949045806959,-2.9495825369316244,0.8321819100942683,-6.760037447439487,-1.8160786846703685,3.020066233631567,-2.8405857672931347,-0.6565568911961321,7.023072087406092,-10.612832048808116,-1.2992216789581705,0.49560344818797986,-1.9638404132478513,-5.304124832220232,-0.02205337464081314,-2.6043676909392275,-5.202215529194554,16.160417513818885,-9.686839153205867,-3.9800170849461,0.3161294680901312,-4.933000459512698,-1.0997767263965308,-3.386046334699086,-7.041047799717006,-23.365468316500746,17.747665877001534,-5.86151489300196,10.642384120081681,12.691242291293662,4.0894465674393246,-4.936525595801552,4.954855743946817,-11.335979659089318,-0.28490533070377033,-5.611477659196987,-8.078854883427937
32.71441041315438,-61.13243192636914,-5.726715316364192,30.98022482083862,2.74436344553925,-11.82547838372318,-8.891629557143744,8.073053804865491,-10.222417312145858,10.84591977893726,-6.741811379728396,16.56824920453934,3.7123761310719914,2.3026720673457817,-7.109301672055153,-2.9482938389555997,0.8294266467714719,-7.28991766259611,-1.7906332366021704,3.0043285950141936,-4.238476483814736,-0.6826034965736625,6.730331239868235,-7.986920410178527,-1.2976309308969278,0.49497423057413603,-1.840564344351037,-5.2410210741161265,-0.03861611416729893,-1.9459270637371446,-5.152216676361773,16.765809894620645,-10.158853457381042,-4.00161871929056,0.3577831167219947,-7.259450360027857,-1.2548406731928345,-3.339377935702,-9.174782035505928,-23.348894298428664,17.73507678052838,-5.85735709686967,10.503163340471245,12.361674855637688,0.6873781340218272,-5.05442884178667,5.038656545523262,-15.10488419714953,-0.26822386549662447,-5.605701109632865,-7.677210646985202
32.73774958966345,-61.173786649249564,-5.860388993887,31.09237788950244,4.361385928884886,-10.982332441521322,-9.039241228102282,8.115330904363956,-7.892533777830444,10.999605431169321,-6.733968369117246,18.60711800056845,3.679625956046305,2.335072467495877,-6.202009005080697,-2.9468306721521325,0.8286132786477949,-7.887462407137676,-1.8420380593357653,3.008293064963235,-1.604303543161052,-0.7130542279745722,6.329162914465826,-5.507193188241061,-1.2965372201048475,0.49325840541512894,-1.0261935599711762,-5.1613434048773215,-0.05178500268413977,-1.0985396086608716,-5.227021677309539,15.848165422644428,-8.318687262342564,-3.962253277723705,0.3351565802152816,-5.099571917183532,-1.128847590164824,-3.3832430071696447,-7.355216902231291,-23.341140862207503,17.72918751719989,-5.855412052104021,10.565743794374312,10.79999858301889,1.1355287187406304,-5.05076873088567,5.023116826156492,-14.833429278956828,-0.18047709118456012,-5.6248025536776876,-5.636521570601531
32.7047569926894,-60.953621127002535,-5.567200208244969,30.87367644754645,2.4035425425397534,-11.978979160963831,-9.027132326406203,8.10100229706105,-8.068283853326037,10.90334208947763,-6.795025379606246,17.470421336707716,3.7527233434565304,2.877506008928208,-7.84726354396372,-2.9406194980797626,0.8244191308833206,-11.6059910193828,-1.951236659376697,3.000678647317396,3.542405379822924,-0.5988494372104505,8.619980582562334,-7.68755288535408,-1.300500570567714,0.49706353745117443,-4.323214761563975,-5.241881939641054,-0.007176020731877841,-2.0836598643446678,-5.04267366407848,18.291447629223768,-9.96647234063326,-3.9810954940601486,0.34103865937478517,-6.120062021487378,-1.1655534678687047,-3.3377304088795032,-8.16435311865962,-23.33121945750472,17.721651534042298,-5.852923145798502,10.382952844450728,12.05857592680799,-1.6594969212176807,-4.884800659206514,4.947212707347523,-10.582906962766998,-0.13148520200503988,-5.632639626245503,-4.613578689549286
32.14619515222036,-60.79714935262595,-4.01532604275485,31.057715971059928,4.193753000604602,-11.056017503079488,-8.953898223476102,8.094712458330774,-9.010200292989538,10.976517431739051,-6.781106600868064,18.37495122683373,3.7586523832752263,2.71993593456682,-8.188281984836578,-2.942549792634679,0.8286733788509607,-8.15481692883429,-1.9486812981077772,3.0083885217449344,3.493397964255564,-0.5992416297064267,8.39290352573363,-9.514133157200092,-1.300407154492095,0.4976731453389063,-4.759228683841229,-5.244509955913259,0.026702683799149085,-2.304843595391901,-5.0517995555829085,18.183241249115724,-9.427463233950164,-3.9730531356035788,0.29914842324896096,-4.264657928160879,-1.1002878347062222,-3.3758183994640376,-7.115363336562893,-23.320024333569283,17.71314807430423,-5.850114711369421,10.489193184123566,12.53845867451949,1.1008407241240548,-4.76391427434217,4.823065252924583,-6.0291987261902165,-0.1121812826939852,-5.64726966727052,-4.074342881016378
31.84756107266935,-60.648586173982295,-3.3997743803629987,31.054092632197207,4.827860318113835,-10.702347295217407,-8.944168841384833,8.079016550882184,-8.874068040363298,11.08535671579915,-6.730689850814283,19.85287753264896,3.8141236914387946,3.6666095696488696,-8.700294645977749,-2.9358398844017657,0.8248484307937198,-9.241785924625846,-1.9132794517669751,2.993783016444859,1.7819413131783222,-0.5620479644827441,9.02492660246594,-10.79157107307438,-1.3005041693920423,0.4978777697837565,-6.367687384332697,-5.20101191782198,0.05097253835805127,-2.082285062920562,-5.083208817493539,17.426622122948856,-10.303483524965145,-3.9665770761758186,0.3123531412522951,-4.815374966756224,-1.0780842571966325,-3.3442000321612744,-7.023363413410152,-23.271667786550744,17.676417980653675,-5.837983877239177,10.50168028199282,11.723782108436623,1.3676227879550424,-4.789545930145465,4.855668606753846,-7.587754498095649,-0.06174080790342984,-5.633532809609482,-2.962564630635768
32.05239409706503,-60.68100974489654,-3.7876923119843298,31.15675333713152,5.255654148838914,-10.502025740643944,-8.975488142445313,8.094123270055654,-8.594016048817664,11.007053326824895,-6.76661990172615,18.76970849770788,3.7968492675582795,3.6213205995292697,-8.0517847907538,-2.9409938968300127,0.8280522690856083,-7.822276477345159,-1.9340915760253115,3.0074862129579927,2.8499839189781255,-0.5765587735690438,8.873315470969999,-9.601335921495789,-1.3010009170642185,0.4976811618986055,-5.570844570537986,-5.264113711125987,0.05248757599423293,-2.676350532424294,-5.120634138733529,17.296435201827762,-8.120331462626098,-3.965863716433703,0.29887146401443765,-4.169166908791013,-1.0312777183575044,-3.367925237520322,-6.342530924884613,-23.302187188413395,17.699599546706178,-5.845640044284735,10.729393271910899,11.889550836290937,5.942274005375765,-4.8393795438233855,4.857039001928938,-8.213880746547034,-0.2355523525155654,-5.630806493832376,-6.714108624082883
32.2750099899101,-60.782304900279854,-4.328059049821462,31.029214655208783,3.411138240084142,-11.46761297477181,-8.824085022082762,8.063073240051445,-11.01951834898459,10.947629455441035,-6.774764057737595,17.96699234555183,3.8471363359246595,3.62053193834646,-9.52708656842185,-2.943326472550892,0.8302684615108442,-7.532245676680601,-1.9540990938031868,3.019254460878215,3.892260671462168,-0.5524084489670607,9.108596196024848,-12.273268919478085,-1.3025953622162822,0.49715100959140685,-5.300021055200716,-5.2156561259711225,0.01168217166915575,-1.9348188291973543,-5.083059126192927,17.63233759587942,-10.70966313855186,-3.963415897846934,0.29148345577935597,-3.5134286663071492,-1.0161210627925321,-3.385318296773895,-6.044650485259183,-23.32418457446394,17.716308060844405,-5.851158358927854,10.71895364935055,11.515732306390717,5.354747218358995,-4.880963562589809,4.845511016437677,-8.568967809171838,-0.22299426483052365,-5.637944698454451,-6.471498484392043
32.30027514280107,-60.85242443211823,-4.462047327046349,31.03507281323909,3.430263088221295,-11.459332902185565,-8.689793470712239,8.035124881635737,-13.03538225223167,10.687382999072511,-6.82408614911227,14.64509712057611,3.8547153268533663,2.585139923187228,-11.500309375458926,-2.9463483923850466,0.8293297227159458,-6.932923798864097,-1.920532778814204,3.009831081459714,2.0801878003396723,-0.5761693390878335,8.446185287276705,-13.528670963779689,-1.2991494258323062,0.49672771990119535,-3.556362628918521,-5.173664376001206,0.005978742616115085,-1.4862111886024536,-5.09408725361541,17.476327075696474,-10.856063077099577,-3.9615292991351465,0.298391935542182,-3.7857367900260854,-1.0448205349547877,-3.3802660632058137,-6.4116811108920615,-23.327712476271255,17.718987742744112,-5.852043376454733,10.806536640453682,11.485913042432912,7.010795829661561,-4.950646867254758,4.85931689899227,-10.294480145318246,-0.1444986610742216,-5.664393707945164,-4.699131409321694
32.45013068670289,-60.83704650884247,-4.806264927404072,30.990524122301416,2.7758754245410273,-11.80207177504849,-8.765747472805762,8.053820639019728,-11.943211305486685,10.789108751201898,-6.796315870959905,15.847183089355838,3.9419951345074296,3.3380347637843215,-12.92619790493029,-2.945153437617899,0.8312605882096851,-6.946852075587688,-1.9420819316591604,3.0249621745199438,3.3706116102531496,-0.5218257254744305,9.449827306647649,-15.12009897104052,-1.299474216488045,0.4936631428245979,-2.302518456191308,-5.099251341798428,-0.06977719612742206,-0.38503002915564366,-4.987901703242267,18.783710502811857,-12.642303470737545,-3.9359857572061103,0.2642893322424307,-1.466234362580714,-0.9885357895961135,-3.4351036445604084,-5.3577729199483315,-23.333186111530612,17.72314534183162,-5.853416505131272,10.699484390251266,12.60595133131659,5.384706061455745,-4.837057478358517,4.766965847701997,-6.48384485200782,-0.15811977696569635,-5.680348574421325,-4.778883838963168
32.616639992311875,-60.86432548384316,-5.1987159125699804,31.017767356936744,3.232438580569294,-11.567286002416239,-8.845982907825682,8.08564241739391,-10.716082503384982,10.854127315547082,-6.810069796257109,16.59072888152707,3.948063153091205,2.6908556906043373,-14.72789577063054,-2.941224397667089,0.8239007016261533,-12.044371879513974,-1.8800569682062314,2.9804117986515886,-0.5317048032617322,-0.5068210427144457,9.559827909203591,-17.50052752810541,-1.3057587652655687,0.5021671863223481,-7.998856940684135,-5.338201585176222,0.09696600887706097,-3.504875600139883,-5.022718105166158,18.014595096278413,-15.614853199269135,-4.004797106300348,0.3606817147993109,-7.5268077288500805,-1.156395008708916,-3.3021864981515776,-8.259872845441294,-23.340892815005095,17.72899910844226,-5.855349826414658,10.558238898043337,11.771673774625597,1.4125998683515206,-4.990793355121973,4.961547470644103,-12.67332615546561,-0.1797246016298022,-5.617760839299761,-5.850863890041012
32.54173419058539,-60.91342281781864,-5.120503888463048,31.156926697196983,4.880252977739417,-10.713020623242357,-8.867332423836848,8.087525028019716,-10.317591852234074,10.725454010890864,-6.817468368409862,15.04838729342373,3.9161936871663983,3.042426364556434,-13.051757391011222,-2.938161398972243,0.8225868498785884,-13.38290711551292,-1.8792119929681803,2.9710167535544842,-0.7518021116912905,-0.543456802587194,8.83216667121161,-16.862350296534615,-1.307841791571899,0.5057820198342121,-10.536472536711926,-5.4826126619708475,0.1767137727135939,-5.304278260119247,-5.081744633822961,17.112754761795856,-15.48240038672293,-4.015722306485183,0.38884866811067376,-9.153305290410437,-1.2854988692115121,-3.2378874297431173,-10.252841976972832,-23.332586028280446,17.722689537696922,-5.853265966873145,10.47384717880776,10.934035200697778,-0.5958771517507557,-5.002181012523021,5.031483620513882,-14.300008959946496,-0.26328155256106633,-5.580571316713664,-7.83813602993348
32.381515701356264,-60.83095029634572,-4.709152232353517,31.149248739708174,5.303675458811142,-10.4808420161159,-8.854246352777349,8.074602907491071,-10.459908314498506,10.74599178949256,-6.823594956073153,15.442942239848037,3.969741644624545,3.319324900540721,-14.518741766331402,-2.933207856841448,0.8176267083915432,-16.324788990952374,-1.8582415480747922,2.9375783961439796,-2.357813924539414,-0.5378694466778953,8.869875348890218,-17.63396407416556,-1.3085974812138836,0.507776999105653,-12.17708033183419,-5.52042120086147,0.21760310232784974,-5.93520606266344,-5.0556094822725495,17.472940692860902,-15.2452228583671,-4.042402996679266,0.4082765342268013,-10.91328099895756,-1.2971928157903392,-3.181209036272116,-10.860628634006218,-23.316202684764917,17.710245271534458,-5.849156003798497,10.491445385469186,11.044300499889147,-0.15793559937526425,-4.947154404947826,5.03361445621463,-13.340210721687768,-0.32539600591657347,-5.557098749416225,-9.392481040617952
32.69239858657133,-60.95720494737216,-5.526464142694039,31.21473242608154,5.86743487661596,-10.199055403492451,-8.861897764124768,8.068207677861565,-10.513913237704628,10.631192148967006,-6.837361827973366,13.90194939106874,3.9625782128588156,2.76538605492442,-15.450546289787212,-2.932873947487959,0.8146931602309112,-18.765737731724798,-1.7891253993206746,2.9288195250930067,-5.878804525863075,-0.525371115877018,8.872812032226534,-20.546035300478223,-1.3132266163831947,0.5141332941987923,-15.950441286831932,-5.764985057783697,0.33887961974594916,-8.890033379680403,-5.013644980627296,17.761491590442432,-18.707299474683253,-4.076067207508056,0.4605505489176549,-13.959655511408869,-1.460510385382836,-3.0943665324361174,-13.443960633613528,-23.332966003174565,17.722978154523055,-5.8533612882462265,10.332728560530864,11.767319919824487,-3.3367338413555103,-4.988551676241842,5.114274146837325,-15.52415600579964,-0.3259947293847816,-5.530187216933905,-9.719436386466498
32.99176459547452,-60.87992866439427,-6.458120263724169,31.20114466520595,6.018870321128077,-10.10242833651742,-8.779878215062475,8.02765535943888,-11.596611556864588,10.450336738300159,-6.834915974975435,11.870697288796919,3.987050979529272,3.5388028744673647,-15.184811777310586,-2.9244446906106227,0.8117685232863037,-21.076004477111148,-1.8148337364954958,2.9386980088829757,-4.158028700293812,-0.48859223268005003,9.54331956421828,-21.50679041096319,-1.312583054932117,0.5126465173771887,-16.226113734461904,-5.690898741618312,0.28949239866519605,-7.9490919217055875,-5.038186245500304,17.285883768172084,-19.018353851823747,-4.093523196125962,0.46858840317389205,-15.130103369248836,-1.4244025390604165,-3.1337393734498704,-12.646289490677361,-23.29660066185066,17.695356198968252,-5.844238595438745,10.390574594865551,10.361232158211834,-2.8652685986757263,-5.092961482464871,5.122714732598565,-17.7790617945807,-0.37123369647291327,-5.529605449603711,-10.545533580790334
32.59190035003478,-60.55213785406418,-5.795864748357218,30.958505477357082,4.429170604619344,-10.864280539197239,-8.81776485009205,8.039265880892998,-10.159292278220818,10.749966571656369,-6.809206809505653,16.16887461535606,3.944726793940575,3.2420435099491556,-14.483554462018333,-2.918909618620631,0.8153827030727444,-14.241484386814808,-1.865240246243733,2.9566461459014404,-0.6737194377045626,-0.5281911857147801,8.780450687387713,-19.137715473989815,-1.2963166944636006,0.5021986647429493,-9.153100026548998,-5.3953835493588755,0.18521911328575058,-4.839189933608623,-5.053152426100388,16.873088900541603,-16.358630907830303,-3.9916270153192057,0.3748062689304428,-8.731646072208342,-1.2131532598863686,-3.257788573493052,-9.192982479111379,-23.183153535607804,17.609185373550105,-5.815778989534263,10.503834798879064,10.086931601044725,1.0058871525864674,-4.965421499089013,4.952631463451303,-13.292316698813508,-0.22752738105880255,-5.5578572218373345,-7.035039821232431
32.07016345478743,-60.79820252674956,-4.138551530665978,31.04911779343018,4.625570302064375,-10.806049030621779,-8.762065572514011,8.02501550869388,-11.700115426438131,10.638905202084839,-6.758354981978408,14.127722479423255,4.097728296085066,4.286426051952162,-17.821190105915434,-2.9233830134263745,0.8067171665085822,-22.05056609530198,-1.7624650981809395,2.9099999575997346,-7.044498184005931,-0.5004768254596215,9.100258912904849,-23.077273035980156,-1.310941332526939,0.515043941349681,-17.249153358379488,-5.759610842604623,0.39003522924441114,-9.174472053114073,-5.096083202634912,16.114361514549103,-21.341644097941924,-4.087997834209345,0.5029072409752313,-16.370167858394986,-1.50633731850046,-3.073280334098893,-14.007403475821661,-23.274857962879313,17.678841137029416,-5.838784172179333,10.368681804864567,9.19155500332046,-4.061339456999434,-5.146911384250689,5.17783917086911,-20.031227226146356,-0.37242852488104816,-5.499755421188187,-10.790896146290379
