36.34812464519098,-62.251150589377794,-16.58938110242637;30.31480617073276,-0.32064357480065225,-13.30736289332884;-7.923813775446967,7.666145005633772,-25.429348720868454;8.238356900951915,-6.334956726069167,-16.281594011752464;4.382825723224953,1.3529831979726932,-33.47108010632434;-2.869939280789015,0.7496453178943435,-65.64414923425184;-1.174955712091273,2.58468413894488,-41.042542118829196;-0.4268665355898862,8.611417193249116,-43.49595763650019;-1.382420249341329,0.5741918493003638,-63.268376697763074;-8.339901991085277,1.6910628189644152,-40.27461307330776;-4.96317233325018,15.186205999678979,-48.90322889836922;-5.012220220383912,1.388417863628009,-78.36713979823887;-3.75861697030809,-1.4778488900238778,-52.22776345733723;-23.30960060087457,17.70523053894978,-5.847499789891619;8.812003648690462,3.8052769345542203,-43.75999469079129;-6.738479829945694,6.900020378966176,-75.66623740470152;-1.617438100103436,-4.751845384667883,-44.19018154151445;
37.7449938909606,-62.82346716924765,-20.88520576557898;30.549475917518283,0.08027264019171453,-13.1456656099231;-7.727727930292404,7.603216025866778,-28.399446876951515;7.757491977820357,-6.307427974699351,-22.122832091236713;4.393248020156062,7.54851679783116,-22.844636237675513;-2.895953337676711,0.777255429460926,-45.14268420130707;-1.4703304364083682,2.746161048230261,-23.88199041222426;-0.30869986221852813,10.775769724826594,-49.01599710807928;-1.3928936614612193,0.6085741041024596,-82.65860670974764;-9.00141292705342,2.2219211957177376,-49.078414805604666;-4.9275412111774655,15.356034461441741,-53.44817627137555;-4.939273678043397,1.567628560036201,-84.93083208526848;-3.8271261506160323,-1.5200491662017939,-52.11794304613675;-23.30959991128455,17.705230015273802,-5.847499616883242;8.610521204927243,3.417772377512919,-49.37915210751788;-6.637303039365251,7.295474538310431,-82.99637936683527;-1.6606072967052,-4.811679168173577,-43.82890999594445;
34.696375312665594,-61.49284579387942,-11.455144249660899;30.52928451560722,-0.06351879692804704,-13.218484803803928;-8.040124919852342,7.802336045709866,-23.026466391565865;9.10825939385172,-6.79070824733946,-4.585340126213926;4.070125817217168,2.7060647384874663,-18.88170931906746;-2.9048815935942094,0.7911692990470336,-36.441138995436276;-1.4445526938056747,2.754816519997776,-24.947379779614042;-0.47735715219122093,8.16134425354797,-37.018222324700716;-1.3564766184111137,0.5417228240848518,-42.44717874203062;-7.199336025798039,0.9916479993914183,-25.840473137029246;-5.172398242970583,13.477114584546737,-35.20507240853112;-4.571690844234057,0.7946350153507601,-42.34498605092041;-2.880701616919023,-2.296037790957599,-35.786037980191075;-23.30960150447815,17.705231225474698,-5.847500016546689;9.624471949355911,6.221801567961774,-21.23809040033127;-5.945587485447268,5.768433001617501,-42.36031142248601;-0.940390835553138,-5.166422096809399,-25.86755405025488;
30.436236201125663,-61.057000333482925,0.2992555575439871;30.22829100978479,-1.4533783812609886,-13.890568452700512;-8.491518249237899,7.9580360925715015,-16.02402826109773;8.840446265829703,-6.752363777867876,-7.964822254171273;3.534188057215573,0.8785204054960764,-4.8494721146105695;-2.9268136267934497,0.8176781855443102,-17.871167667032438;-1.611708993954029,2.9148577126170423,-13.620569517453216;-0.6591524639509218,7.9561696124510295,-2.3806963363950233;-1.313085594430668,0.5048971247326515,-12.626661316124009;-6.383325160907968,0.2902715943762963,-14.539535459090265;-5.283108461057249,15.710739458146483,-2.644835604599814;-4.078666515920419,0.3887082363465531,-11.215471305811963;-1.515782367357542,-3.216187825716044,-13.076351618829174;-23.309600724191377,17.70523063246677,-5.847499820848502;10.753841369729745,14.949068571800613,9.304281055465108;-5.224009707600261,5.039104143783711,-18.13603051623078;-0.5710147066419811,-5.531597589361931,-14.575035854914436;
32.01210063048483,-60.78635675824163,-3.744860471372762;30.500019552788537,-0.40524187768236686,-13.3953646041696;-8.947885275697761,8.078539935436723,-9.101747762485989;10.640339128993746,-6.812731557069013,14.190224100286807;3.530435377818305,2.6268498878313147,-1.4294081768959275;-2.939807624822969,0.8239547372831117,-10.487632086422323;-1.6904015726594532,2.9665177927802193,-9.294247973794208;-0.6351291603807255,8.396760138887696,-3.1685406353194465;-1.3002899742632406,0.5000367803098175,-5.86252407672643;-5.640247552000299,0.11221999307825421,-6.59970021024439;-5.215664609794021,16.454845917329482,-4.630706239828265;-3.9749217107184216,0.34981672636762123,-6.158388052526801;-1.1543407042888347,-3.3099974567164834,-8.161970187172214;-23.309600830078125,17.705230712890625,-5.847499847412109;10.746727093442981,14.781505959031502,8.071821721895935;-4.730434346009178,4.908287194931567,-6.668145155744633;-0.22880830581110492,-5.58959583881954,-6.920405864379687;
32.26315746997913,-60.814161379727416,-4.425589577454338;30.822552307521935,1.8694194654334517,-12.247844586031244;-8.807790314028601,8.05478030054935,-11.182501845675665;10.667095385931761,-6.816297260529137,14.491272897047262;3.6368251837619274,3.173542883100455,-3.8768307960087793;-2.940972988718722,0.8240839342222482,-9.903823297728238;-1.7463945693849758,2.974773223463979,-6.6127150661940135;-0.6032132700960019,8.631532586887582,-7.100281038939623;-1.296777768193955,0.4997491328200091,-4.164107442067713;-5.393931807332588,0.08512573077821851,-4.050742212408923;-5.194310219095577,16.49036195561038,-6.885176122849508;-3.9721005579033304,0.3496203237050687,-6.028278607928092;-1.0950744644690211,-3.319461923007585,-7.374697469258996;-23.309598904935694,17.705229250613975,-5.847499364466435;10.741052519486177,14.109172608591878,7.445859636751465;-4.749449379604731,4.906678782466571,-7.073940806745684;-0.10587686708261526,-5.60678333863098,-4.196043143476067;
30.53186043111158,-60.88301531687431,0.14515254149659793;30.56385693663257,0.16361359403376205,-13.102989814775887;-8.373865216199663,7.93228944557577,-17.778302796126074;10.608298572755274,-6.806834148780717,13.811742767926233;3.6920544436466556,2.2145624532110917,-7.38907592120365;-2.941110858735634,0.8242745378851086,-9.815266688654585;-1.7509724066867283,2.973717108025034,-6.402285800127225;-0.6415898070438278,7.345419389161348,-10.806582494318803;-1.2978113728868266,0.49981815793873846,-4.660502138826347;-5.454032308031054,0.08740156833219462,-4.66747554779357;-5.240109905346287,15.468129036288904,-9.413218551240107;-3.969468011852783,0.34988446746961355,-5.909315044906349;-1.1514952871806992,-3.3139077520074656,-8.116723847167375;-23.309600830078125,17.705230712890625,-5.847499847412109;10.783102939658672,13.17787610983838,7.748641952856914;-5.007912814027377,4.950951370901639,-12.92013404728441;-0.29602525965116266,-5.601227489156203,-8.347899249788938;
31.891065098419716,-60.86362782612087,-3.471164937008872;30.905440651056455,2.7350644211848545,-11.801991588684842;-8.411845305323789,7.948283414841641,-17.181897377267433;10.718700407071315,-6.810294826582996,15.107131709906714;3.7648509558832193,2.88486168602947,-8.46631297208251;-2.9402232310435203,0.824027642116336,-10.26899529132051;-1.8434912612771162,2.9800664173985427,-2.003526857917729;-0.588260134365271,8.35970532956401,-12.125804796324848;-1.300027480423312,0.49997464278617926,-5.728777811713975;-5.399453954611721,0.08095632485319368,-4.102330027393811;-5.170104073825401,16.394784272267874,-10.253930201850649;-3.988005726019685,0.35136891279839294,-6.744816029964162;-1.1626530014475573,-3.31218297396534,-8.264772114572663;-23.30959934292138,17.705229583294155,-5.8474994743404975;10.681536150580621,12.708582858676563,5.123731654410869;-4.879558851877692,4.917146188894252,-9.969677154466822;-0.20864676218095088,-5.615820259882698,-6.4060136693680665;
31.19717158467596,-60.83521023412642,-1.6246481744140275;30.900726764417033,2.7278387171473724,-11.804745511041402;-8.799567653912275,8.055161909498432,-11.29974278004642;11.00537594017933,-6.724405748295608,18.69776744721818;3.795603993241395,2.9839096199412083,-9.303708361497254;-2.943823180195455,0.8246980554668664,-8.458746613950018;-1.8751083134902355,2.9818067400134534,-0.49989596524106517;-0.6086231159120771,8.173066449464647,-9.93370143374506;-1.2992398180639773,0.4998758445346533,-5.347326731107104;-5.37528628958164,0.07963648225940069,-3.8543188083029376;-5.244570623071871,15.41274436975269,-9.196836146650018;-3.96321746742273,0.3482822815079939,-5.623550931043906;-1.097289593176297,-3.321945684076378,-7.398376947005933;-23.309600830078125,17.705230712890625,-5.847499847412109;10.688698464752056,13.039238025590747,5.467092200465966;-4.8683457390184754,4.915671665960766,-9.717819722548283;-0.17084737355165608,-5.619147157913558,-5.577599870248321;
32.735516034787246,-60.95620220627372,-5.772553776544138;30.815748485582755,1.9287032674796418,-12.21437451245175;-8.553682683933173,8.000220352413697,-14.979847024541456;10.598114565485568,-6.831590989113331,13.644823314986196;3.9368276172596315,3.4590515639795307,-13.047426538995163;-2.938655978479364,0.823700695225434,-11.063642114730888;-1.843038711683368,2.980936372311653,-2.027652344972834;-0.5042318362146512,9.66724119766317,-16.71750028234998;-1.2997938422403383,0.49997935570411783,-5.61846084120453;-5.559458257332826,0.09284100234301332,-5.751296542770251;-5.071406071721273,17.48157177846539,-12.880840450657796;-3.9991340866649594,0.35320692286488997,-7.252707493936567;-1.3175458862178258,-3.2823793442786338,-10.33381155460428;-23.30960013918524,17.705230188162243,-5.847499674085794;10.580413044991385,12.261418835447632,2.800258837689673;-4.930967241576105,4.932586599085218,-11.157489473814698;-0.26984675777513367,-5.60986820955362,-7.752536421695036;
33.00834823900022,-60.962086338965705,-6.504714732179518;30.960491756337156,3.1569769788394493,-11.587297360336168;-8.453651084334258,7.965892449103082,-16.521061516015685;10.800169053580117,-6.780580311954642,16.14235000141745;4.07360601691658,4.421864846043147,-16.090880280133902;-2.930621425336296,0.8192514894014284,-15.750066074696187;-1.8569560827579092,2.9788509909595358,-1.3858171701514215;-0.4740422273909248,10.06731130795247,-19.160597064943182;-1.3068765594925758,0.5023537995615167,-9.260067680648337;-5.637904882916516,0.11370072388370767,-6.5840833667879775;-5.045904937880243,17.62396720334652,-14.810770536134113;-4.009857962188307,0.3568587874229606,-7.764977907079782;-1.2277740664080061,-3.3001168683057527,-9.134410842019161;-23.309600830078125,17.705230712890625,-5.847499847412109;10.571626909421111,10.815810881487689,1.7370963975716254;-4.94218356224593,4.933791069829418,-11.408355841890259;-0.18123635820019948,-5.622407837712797,-5.79512274586093;
32.3639091201738,-60.84044331106343,-4.709112592588042;31.054379131983712,4.1454619144814115,-11.078006151942649;-8.566459711283821,8.001428312126892,-14.794946955014504;10.805846852179823,-6.781987501212731,16.20575780752848;3.907201711756696,4.155625010282215,-10.873554987626887;-2.938077624196857,0.8237690347820971,-11.340475686209285;-1.8471943362636716,2.9790102252954216,-1.8429478276420725;-0.5167992887225094,9.607653889741604,-14.876762489065182;-1.3010327146359033,0.5000428991988807,-6.21209745699375;-5.579406669244961,0.09584203629268714,-5.958562366403273;-5.099023663075452,17.175760514503036,-12.128635778607205;-3.9825119339715322,0.3503338234700361,-6.4954232334911675;-1.252674538746348,-3.2939645694127404,-9.470432348591444;-23.309601043545253,17.705230875094554,-5.847499900954309;10.672064740724645,11.336361119620841,4.115079963209032;-4.980752215545813,4.941932720971714,-12.28780842432385;-0.23456693958451383,-5.607445789219225,-6.999009860138888;
33.893211982657846,-61.08819760889766,-8.928535521477702;30.836495555244124,2.1269873836540993,-12.112520491775944;-8.535961108003598,7.987816604272226,-15.274645957646637;10.63774568324143,-6.819399873972963,14.138540530185407;4.094579376133436,3.925289949509871,-17.657189720744523;-2.9299441656743457,0.8191339987084808,-16.091120366040723;-1.8610192355474056,2.9787252713128978,-1.1939595489128163;-0.49570795946012153,9.561514417063693,-19.42534185239535;-1.306926859480898,0.5023749240178447,-9.290628773050917;-5.673910923771849,0.11624719419657235,-6.954721157221404;-4.989094232524017,18.47871676321336,-14.493282656709372;-4.028952510940548,0.3596533790935452,-8.631982351651605;-1.2692097343721809,-3.2904605520544363,-9.691495405711427;-23.309599931171476,17.70523003011071,-5.8474996219101945;10.586356203373615,12.690685274178389,3.173719523947099;-4.955409593387527,4.934223059498389,-11.698319673177425;-0.17386917698884258,-5.623348286002411,-5.632810348878361;
32.79391300821028,-60.936127599608945,-5.921968937949024;31.052131569247706,4.182532791089036,-11.057767863917677;-8.71679646450597,8.02989864252985,-12.561789953727924;10.869455516820599,-6.7600677483971126,17.0080466645533;4.024073607346028,5.221277944752305,-13.13047911355648;-2.931457923866813,0.8193829378345248,-15.3336763929566;-1.840539106219481,2.978458497294229,-2.16282686538675;-0.4877780316032804,10.092560407378443,-16.38033888617794;-1.3085558557712187,0.5025313587610226,-10.073349987389154;-5.605922020791405,0.11060216080636016,-6.2538753645788665;-5.099762617270323,17.061404328028733,-13.118268267491597;-4.011560659396279,0.3571399769996022,-7.843849719094867;-1.20639686148948,-3.302701989459369,-8.852358265574702;-23.309600830078125,17.705230712890625,-5.847499847412109;10.560208419726676,10.975926212074771,1.5010583955484276;-4.862852817100767,4.915865540518566,-9.601160745765497;-0.07970214523189569,-5.627708073330801,-3.571447752020322;
31.240265721945157,-60.75865788264026,-1.6930160478143248;31.12383797273787,5.1477076392745795,-10.55718650018953;-8.783529383816232,8.044920118185276,-11.56385452349042;11.05527064098698,-6.712183531222077,19.312090884290626;3.951465834184907,3.793275065911718,-12.89353057539252;-2.9399037851094407,0.8240342503285377,-10.429091601568603;-1.859422740827542,2.9827946945861217,-1.2444035898500247;-0.5238963028231532,9.140036504321715,-17.58566733959157;-1.302040648986208,0.5001763734746805,-6.701730994672041;-5.289690392952635,0.07124835951824855,-2.970683609489623;-5.152233109366274,16.048681330526048,-15.306200230158916;-3.9982395366416017,0.3524025598733981,-7.207148890351951;-1.2098536316941242,-3.3049158539107495,-8.8906826437759;-23.30959920957893,17.705229482011408,-5.847499440889917;10.332522084303076,10.0756025811607,-3.778225895616027;-4.841085490673158,4.908711809594055,-9.095400153166684;-0.047956060339091285,-5.631408667817299,-2.8754192949616164;
33.40027102420388,-61.063719471802926,-7.626437234284444;31.131897544219346,7.372569364539227,-9.381572221119063;-9.373607179680011,8.110601058126534,-2.8539860646490913;9.967773656779809,-6.846647105661326,5.8837040834534;5.084071400110488,5.4571100463946545,-53.551316206361506;-2.8503588549602528,0.6821539783910822,-104.0920124125504;-0.850225304968078,2.320104340033015,-61.942778145082;-0.22840579949981393,11.565677368357518,-61.12187740882187;-1.4032236445519888,0.6493987615896216,-104.96914287645953;-9.830944563770824,2.9291206060317743,-60.74437042580093;-4.822509421367593,16.016435377779143,-63.923362973980154;-5.065021514377782,1.9542485218473031,-105.11689382252607;-4.40007388015846,-0.9828041324526678,-62.748590117885165;-23.309597700887853,17.705228336058134,-5.847499062416156;8.285097022238046,2.3283184188899355,-58.1145896409988;-6.946145128526693,7.976412062172696,-101.47427308093741;-2.1000102830368244,-4.459181721531636,-56.52077093359604;
34.15309776459963,-61.3446232915122,-9.873544328786695;31.060681163745947,5.849657735017613,-10.175595152063527;-9.154695621374886,8.069595947993673,-6.127831089012082;9.540061813155656,-6.7823764544427805,0.6392641642835539;4.904179898468536,2.210225028170537,-53.610649176871156;-2.850267408344561,0.6825061708517531,-103.90857198637092;-0.8510171760580211,2.3223549647699135,-61.8285609670807;-0.2828400379414121,10.32146967674794,-62.03122048139778;-1.403546571269368,0.6479498261833891,-104.25300126086077;-9.818003819206579,2.9041700862686226,-60.45446860703474;-4.874186804846368,15.108322325863526,-66.6889428580054;-5.071989478530704,1.9141103952692133,-103.28784730637302;-4.38379991836211,-1.0195203606261904,-62.22047845946857;-23.309599264293418,17.705229523570818,-5.847499454615715;8.167070708553954,0.375403247158235,-63.25660319165453;-6.959198021373152,7.875861409695225,-99.22297794880174;-2.101433780168412,-4.457086914279728,-56.57570938337444;
33.22377983841209,-60.91689237912495,-7.025359376168971;31.535139266439643,13.262462297408957,-6.331717703999116;-9.441727754274908,8.132012412570996,-1.8282462257055003;10.386196256541025,-6.8733696399910835,11.046412934395011;5.177585789954428,4.252493879346313,-60.89298145214582;-2.8508713056966326,0.6743227534106797,-108.06695683769591;-0.7454644752767698,2.1718150615794873,-70.70977784146365;-0.29497545824779564,9.98744392312741,-63.49851209910566;-1.4027118602535324,0.6516043952044169,-106.05165028878885;-10.031795222835095,3.330922560792616,-65.37858323774226;-4.889956223663434,14.984231484088303,-64.97312494088533;-5.055021132509269,2.005231964156415,-107.44626822371912;-4.600486408451963,-0.52934716454204,-69.28833134160702;-23.309599658317047,17.70522982286125,-5.847499553461013;8.24442504633187,1.2343150451135716,-60.38283977047921;-6.93323001419877,8.07569741702339,-103.69954450184112;-2.2500870112012477,-4.202291733936849,-63.03920561320558;
33.09735449575576,-60.91200949653303,-6.690937804547176;31.321763786525278,10.44927349362415,-7.780822899266572;-9.46356271497314,8.13399150346094,-1.508349021558132;10.289871570710346,-6.907940373178684,9.831000504793906;5.177261877833378,3.9691198961071983,-61.47001653473834;-2.8502746304361932,0.6772000299572376,-106.60426230332278;-0.8273986512901536,2.2993394614097147,-63.34996918590267;-0.28162497298045813,10.18089587644356,-64.7366867068283;-1.4030325388451452,0.6499369037368028,-105.23062321986446;-9.78919856621285,2.991093775538498,-61.02492187807786;-4.876618663581524,15.04111717939873,-66.50624388336651;-5.058946579027866,1.9884962549536718,-106.66347723914018;-4.46953969207152,-0.793019536500698,-65.37485699854342;-23.309597696757073,17.705228332920644,-5.847499061379883;8.181246402234038,2.7816200302169354,-62.48569649407764;-6.932394938309188,8.03897365434291,-102.87819574938632;-2.1277124598808044,-4.360197554993837,-58.64041558546734;
32.998302139844206,-60.89704956583346,-6.418606925996317;31.558996730790742,14.044126299511024,-5.922889911135792;-9.461399788209297,8.134038491597337,-1.5397675054772968;10.362706683314801,-6.882482733900587,10.75023851920083;5.181589033570454,4.073557505236062,-61.46125321683964;-2.850888270877442,0.6742820463850207,-108.0873839995504;-0.7579788235440527,2.2069494364720232,-68.94481991626473;-0.2919246138705116,10.015303222639043,-63.84517344124928;-1.4029872074309766,0.650555448218023,-105.53067083679134;-10.025196027524762,3.3225939620511546,-65.27349370895256;-4.894901690704138,14.891644356792781,-64.9542683851822;-5.053285834942786,2.010611168910377,-107.69950376438888;-4.571678657219459,-0.606249601125833,-68.208497580108;-23.309599114787677,17.70522941001283,-5.847499417110106;8.216652166953727,1.262145592065094,-60.8277293109568;-6.925641038612395,8.109920542710636,-104.47578737788511;-2.233154833426183,-4.230607888820773,-62.31972529376336;
32.22420725859422,-60.81552611630709,-4.324832865854398;31.319769258494546,9.30395684098889,-8.38984395303683;-9.427504880912368,8.13263507707766,-2.0362720991829706;10.655494638395071,-6.815235705352175,14.362064992924113;4.787279564862714,4.298371122721737,-45.50115280103818;-2.8759911607314157,0.7251446990790303,-76.06799449614779;-1.1482894172344642,2.4840473099479863,-44.83285123397952;-0.34426153329777776,10.381551175407813,-47.55849874882408;-1.3725648080987354,0.6026028807621807,-74.13462588585107;-8.375699942663928,1.987808431335683,-42.117746112571844;-4.941326568339171,15.955320783852889,-47.33281583380859;-4.746099572477879,1.484598787170788,-76.22049243354067;-3.3508902244635834,-1.7672235106494554,-44.756897976131185;-23.30959616204236,17.705227167201233,-5.84749867637769;8.982838623501886,5.581018537904825,-38.92955379768596;-6.236727820118408,7.015389348280789,-71.44885259727542;-1.3765420912342698,-4.849531734903579,-37.95068724479177;
33.06496906350243,-60.90287678528803,-6.597837666491158;31.530343479612572,12.524182883009384,-6.718481390901461;-9.459630910186407,8.132396406715655,-1.566355746619461;10.286534060738335,-6.898463240335677,9.814676104136128;5.179083533913669,4.1528616545850925,-61.322924939086306;-2.850866589052345,0.6743125998434173,-108.07290455662003;-0.7395992937344217,2.1585304984811233,-71.39646813205435;-0.2967811628345976,9.95526100468317,-63.368914446861986;-1.4026863060657209,0.6516966875508035,-106.09784495939697;-10.056858106549353,3.3779777668549333,-65.92744818702981;-4.875508320980566,15.224548931973741,-64.55498602111267;-5.054953100144751,2.005445023993706,-107.4559454354235;-4.617255579264742,-0.49574941447046317,-69.78160971094344;-23.309599658317047,17.70522982286125,-5.847499553461013;8.25377222386665,1.2749524815998678,-59.965997434341595;-6.936576483803016,8.063565573180789,-103.41963933587866;-2.246437373010138,-4.208259336100118,-62.88595938168992;
33.06496906350243,-60.902876785288036,-6.597837666491158;31.530343479612572,12.524182883009384,-6.71848139090146;-9.459630910186407,8.132396406715655,-1.566355746619461;10.286534060738335,-6.898463240335678,9.814676104136128;5.179083533913669,4.1528616545850925,-61.322924939086306;-2.850866589052345,0.6743125998434171,-108.07290455662003;-0.7395992937344217,2.1585304984811238,-71.39646813205435;-0.2967811628345976,9.95526100468317,-63.368914446861986;-1.4026863060657209,0.6516966875508035,-106.09784495939697;-10.056858106549353,3.3779777668549333,-65.92744818702981;-4.8755083209805665,15.224548931973741,-64.55498602111267;-5.054953100144751,2.0054450239937056,-107.4559454354235;-4.617255579264741,-0.49574941447046317,-69.78160971094344;-23.309599658317047,17.70522982286125,-5.847499553461013;8.25377222386665,1.2749524815998678,-59.965997434341595;-6.936576483803016,8.063565573180789,-103.41963933587866;-2.246437373010138,-4.208259336100118,-62.88595938168992;
32.34486922172082,-60.87811133235461,-4.6853169089208135;31.384938014503813,8.659858203383816,-8.736450353570506;-9.092566602965253,8.087343613089507,-6.986843028939235;10.69600310346249,-6.812282005756891,14.839008514074475;4.36434452682854,4.29789520384172,-27.13787702754353;-2.9133385154799294,0.781214685220691,-38.80419984341412;-1.516421342719701,2.74620296977193,-22.362181190929157;-0.4499907369573653,9.285361879030125,-32.13607434849447;-1.3332042161552784,0.5443744931386449,-36.6005188510103;-6.667136367972707,1.0548825713702639,-21.36481159538759;-5.062932432641134,15.849092917455703,-28.5385841328081;-4.329197699121513,0.8361056397718606,-37.5479051854515;-2.302716578692439,-2.4030323617656717,-28.589732707184204;-23.309599625227445,17.705229797727362,-5.84749954516009;9.783995264648242,7.702377178727829,-17.204282404247284;-5.534544807681521,5.872749981149235,-39.34608106629838;-0.6093416163898254,-5.173169545006172,-19.304653299053403;
32.942847165195374,-60.92540289755048,-6.293760190806117;31.320862251946888,8.008245029637141,-9.072048169659086;-9.168771522456607,8.088882157099336,-5.873955795816991;10.55190145733593,-6.854511208671727,13.038646026855128;4.5368545041186,4.656107767833214,-33.002874117172496;-2.8992076058085727,0.7593186289765683,-53.58182980664724;-1.3652231826697574,2.623353509951633,-32.15864564298285;-0.41569708343422673,9.236284325422188,-40.21950515448445;-1.3608936383603596,0.5760170384597111,-59.397327762052;-7.668975891411676,1.658222333660253,-34.133918357209936;-4.981758917479039,16.06835531930215,-37.352483717923015;-4.616904716916173,1.1881025640136673,-60.42570719591924;-3.0822342747574396,-1.7993836003840895,-42.31454775411981;-23.309599047555814,17.705229358947914,-5.847499400243846;9.441371604644193,7.330093533422505,-25.169629537615773;-5.995786258963723,6.424666295706856,-57.4637037473448;-1.1142688587726637,-4.883519081367585,-32.78920261367775;
34.239601741095704,-61.62041085630882,-10.497258149659418;31.27433457792657,8.942884627114596,-8.567510251999595;-9.210363554593124,8.03551962788163,-5.501304657452018;10.040760372612368,-6.919579305656396,6.819585901095796;5.010777029218255,4.14547522407604,-53.99895493126447;-2.8621469517213645,0.6953200757512625,-94.89099937739162;-0.8915593704251802,2.282033937370883,-61.52205348896498;-0.3296263821438626,9.39219360743259,-60.68255952117738;-1.4026505918673438,0.6445960184775382,-102.64575471806484;-9.785882718315426,3.0836657869495836,-61.74397660627252;-4.8281699712001585,16.119102251437997,-61.62979877993019;-5.058103179820287,1.9652913554379663,-105.64524799185158;-4.492406981315199,-0.6484286753776838,-67.19294055054951;-23.30959905088769,17.70522936147871,-5.847499401079686;8.390722149938735,3.8113384094727247,-54.944424599702835;-6.928466139495503,8.020900050238073,-102.49255069771498;-2.1213033504111567,-4.319171744152195,-59.23430142573621;
30.655530268763695,-60.824700796923324,-0.1864903207294117;30.36457195717577,-1.1411719087373717,-13.75675438995498;-8.83343468128455,8.059026776644092,-10.800900553181636;10.134776020575279,-6.770509593738553,8.033783103710862;3.7617289742698103,3.399873845456554,-7.48493606328706;-2.9294256079386622,0.820360078865601,-15.976093786201103;-1.5910865906335177,2.934565642693387,-14.285828846683648;-0.5599710962201133,9.080888550687261,-11.325205106803114;-1.3081655682124012,0.5013165795551385,-9.692530084099824;-5.778538936411119,0.12196119115954142,-8.023388811592278;-5.134466376953115,17.020651455868474,-9.518152019382482;-4.089265589075056,0.3689290407993669,-11.359925556026623;-1.320738364188697,-3.2806934104255063,-10.378958633828473;-23.30959698884888,17.705227795215695,-5.847498883792473;10.421587974141207,16.16993435792609,2.4591094950891805;-4.996296455907687,4.964177008308719,-12.742558619831138;-0.27340733037366866,-5.594614617031669,-7.880901163488287;
31.180316616652817,-60.77189328400357,-1.5408933070983468;30.3327053739422,-1.506744899918578,-13.945625338204069;-8.902918070494318,8.07138838957738,-9.76746931050403;10.20544414582653,-6.75345222882604,8.909046397544715;3.6975632890341776,3.9081782522451283,-4.5477868479548835;-2.930450478059794,0.8206248966611998,-15.447628679770512;-1.6448194538274126,2.9428260783128364,-11.707537318793927;-0.5822457898550988,8.758593727261028,-9.879530309545133;-1.3046694652427206,0.5008901190782463,-8.000793051953346;-5.67445060816479,0.11590181476165225,-6.954161992193322;-5.211018296197829,16.05768606136495,-8.208588812652591;-4.047499302067988,0.36142456617299806,-9.450695742183228;-1.233345402964473,-3.298058738806229,-9.208388925851365;-23.30959675502575,17.705227617611005,-5.847498825135078;10.636568754449454,14.466964016362667,5.725469629394406;-4.9882913778814855,4.953693795609972,-12.504375891612085;-0.29965734390490845,-5.5925411746352856,-8.461289910416951;
31.63396670581326,-60.78452391144775,-2.745143040734969;30.87322716369891,2.3568460586127666,-11.997559938812698;-8.585859843852957,7.997626860447077,-14.52568546246665;10.535890748168944,-6.828146249380716,12.909269183345211;3.749756339904401,3.0283633624129798,-7.746014267504068;-2.939271316988914,0.8238564263864933,-10.762285289808874;-1.7807646179954577,2.9747603705557006,-4.997661931191702;-0.5918879110421275,8.246304564047252,-12.469840189621248;-1.2994609933304808,0.49992867608701597,-5.450963880923044;-5.236393796311672,0.07435075610432429,-2.42705154928704;-5.160026067306684,16.48114017709684,-10.88341543418967;-4.028341852902102,0.3575352693153709,-8.57615065617516;-1.0222132147329488,-3.3274875731328284,-6.413154403566318;-23.309598791267234,17.705229164274993,-5.84749933595131;10.659500257253494,12.573231390158568,4.761254590852201;-5.108412221737308,4.983019582583973,-15.263872860846387;-0.18841620080712262,-5.617375777098615,-5.965923476082871;
32.440447274046605,-60.844258683603854,-4.913669536945735;30.840434371335174,2.160340861841077,-12.095897392649947;-8.79895333258255,8.051546277827965,-11.318608390713182;10.929085028199081,-6.7484244368669035,17.739080352704587;3.8045371339196494,2.9184423425971255,-9.68945748669613;-2.9411865738520158,0.824283808590237,-9.781503035075673;-1.940950612769306,2.9822189298034707,2.616416267748775;-0.600298143243997,8.26398903760166,-10.701037432196605;-1.2996015768176836,0.4999349161090719,-5.528044842038708;-5.208568824035129,0.06812949329828559,-2.137451178566721;-5.14276028769636,16.77592640507403,-10.215232493475844;-3.9815792442866917,0.3502474287038316,-6.452528771073607;-1.0664411840736574,-3.3259061994418175,-6.991139974370248;-23.309600830078125,17.705230712890625,-5.847499847412109;10.668025484158688,13.66748654282975,5.505715858141059;-4.843529538057062,4.911807045960846,-9.160178201123632;-0.17977351866076427,-5.616585664871686,-5.777648999485047;
31.97075123437338,-60.82297136447749,-3.660243014801314;31.115783485974966,5.12837964206867,-10.566372707676138;-8.804157558513344,8.052031249053671,-11.242905883621793;10.825990543276692,-6.779466525146354,16.446693717430833;3.8386700006443957,3.635827683183759,-9.565295842368851;-2.9396125375233164,0.8240513271569635,-10.574472074251448;-1.9088961822587547,2.982935587256668,1.0975202403955262;-0.5541260231772064,9.050738937458354,-12.643363969321069;-1.3016320344436356,0.5001439313325082,-6.508761797357464;-5.226319548124619,0.06887420008383259,-2.320035626864668;-5.150271685640391,16.419785607047764,-12.424427120589717;-3.9929528125250155,0.3516695770438015,-6.968208148628736;-1.1150717450842884,-3.319116485873141,-7.634726977305064;-23.309600830078125,17.705230712890625,-5.847499847412109;10.511042537312473,11.776720908644814,0.9472088379075062;-4.867319880644904,4.914222171821962,-9.690856179291384;-0.06154787528144102,-5.629343797431906,-3.175342859790881;
32.06850262749968,-60.807079036488574,-3.906944591252656;30.949999955175365,3.4018290257037607,-11.454971610312025;-8.90155794958714,8.074690755476434,-9.782874525653071;10.945330285975519,-6.748009298557939,17.92642128085978;3.879494531429066,3.3507254259341965,-11.357420385840332;-2.9419703770081473,0.8244753181228955,-9.380142077945274;-1.914586884269353,2.983234369198381,1.36733210125191;-0.5634496535701831,8.817409472876589,-12.920873434294796;-1.3000762752209438,0.4999408176785551,-5.746682080896763;-5.160258849255598,0.06747147791566646,-1.6411028902169156;-5.159689489689417,16.311964377305106,-12.105517370561904;-3.98136705512793,0.3501875509968332,-6.440771339383312;-1.0561256494737479,-3.3268442365572914,-6.8550386323888315;-23.309600830078125,17.705230712890625,-5.847499847412109;10.476034404274003,13.030287390677888,1.1368719208298792;-4.731248088982193,4.892781880562493,-6.631062861447205;-0.14463883652784104,-5.621926288102692,-4.999745335405974;
31.860261750989118,-60.82871454455381,-3.371701962144987;31.175539760484178,5.75865367852298,-10.241329626370794;-8.7007096779013,8.029203125535753,-12.793711112371165;10.839732332222608,-6.774177824138791,16.619771082864133;3.921353293264645,2.9674515529749828,-13.374844525424011;-2.9400411149309784,0.8241060873598267,-10.354597200384697;-1.8979792233527966,2.982936148299553,0.5809401367047583;-0.5735184181784427,8.253284544228027,-15.823285702683796;-1.300042333237546,0.4999411929200809,-5.736209372384566;-5.16657657822175,0.06802609140272496,-1.706256221642398;-5.221731633369773,15.257628920799178,-13.397819438562474;-4.007628706183315,0.35363474118791166,-7.631927403310129;-1.1357954964729877,-3.315773792528258,-7.909619107603795;-23.30959834379237,17.70522882438721,-5.847499223696757;10.471868128787511,11.476215318705457,-0.08544228063640295;-4.870394532577861,4.915957144355864,-9.767223297163687;-0.11405237908288303,-5.626787018400424,-4.322761344969001;
32.317324975736966,-60.85299848428564,-4.5926025410371505;31.149826167502457,5.4393562226391365,-10.406694482229824;-8.836891952036343,8.059842316200324,-10.750381881644232;10.834349782314147,-6.7801461600145245,16.54125236505153;3.815363480325794,3.052360595713725,-9.838756214909756;-2.939029135471157,0.8239251173650615,-10.869380517345258;-1.9270774360595504,2.9819025966614796,1.9589021010211785;-0.5720684261751172,8.776351277140828,-11.627678258486839;-1.300609143259887,0.5000121410434246,-6.010897299097466;-5.160613451556425,0.06810789647638486,-1.645340009178291;-5.146124729631567,16.59405252637416,-11.385228532667725;-3.9857741353365923,0.35092068581257346,-6.644510093664223;-1.096422789015363,-3.320802557136369,-7.389463066555132;-23.309600830078125,17.705230712890625,-5.847499847412109;10.562478285202877,12.862842168501574,2.742196710188939;-4.756492867901187,4.898489943668204,-7.201811737772681;-0.07476925646991102,-5.63016546655705,-3.4609605558789105;
30.506382404370417,-60.7675661472672,0.2386674136685491;31.094974651453246,5.228457658284229,-10.508188183126492;-8.77187269802413,8.041151184313698,-11.73860581666133;10.81847333525234,-6.787645447102707,16.33354521102266;3.894708680924942,3.184619774775693,-12.15209721907809;-2.9378695958939547,0.8236610327188794,-11.45494941678839;-1.846334932224463,2.9830870312044406,-1.8636405173447343;-0.5529613523474436,8.507726764936278,-17.556756077270496;-1.3031041029759476,0.5002967706027651,-7.223219467426328;-5.2982089488134685,0.07183281647760249,-3.058475848619846;-5.153717813496592,15.735693077782116,-17.461554997276902;-3.9822262284518373,0.3505522698668827,-6.482582552531817;-1.2100218972845762,-3.3056041548931274,-8.8911739675734;-23.309600830078125,17.705230712890625,-5.847499847412109;10.24677820154305,12.341151944183304,-4.253631422203003;-4.775707490662759,4.900648061708144,-7.630600250138618;-0.049950158765844854,-5.630848153285526,-2.918935629817242;
32.07087515242943,-60.807563998162614,-3.913736556191509;31.078385377078636,4.607710942828668,-10.83629984434391;-8.883685959691034,8.064124417749783,-10.070667556222931;11.052091671665249,-6.714122668636205,19.26865995244044;3.85433321856248,4.02864426342501,-9.373707056035782;-2.9411054002627077,0.8243340479862941,-9.809140624239843;-1.913006733779909,2.9831511632866103,1.2922982914317802;-0.5822063803239278,8.630170550021958,-10.985044799814458;-1.3015930680724963,0.5001178682285846,-6.488302824525875;-5.199494776697555,0.06819407739032445,-2.044517674303461;-5.226844180307084,15.494873658608688,-10.866487944149407;-3.9915193054663445,0.3514662242780346,-6.90270297347733;-1.1134929866371939,-3.319349170237748,-7.6137103272880795;-23.309600830078125,17.705230712890625,-5.847499847412109;10.568585623891071,11.541240954009426,1.9893799107670314;-4.835079957567919,4.912537315012389,-8.974327858487012;-0.061728461485271925,-5.631119068296624,-3.1758403393966055;
31.008222050598608,-60.775610419032944,-1.0908353287696726;31.146117086302144,5.455942657715462,-10.397270000520221;-8.720651682808018,8.030380755812542,-12.503493849078874;10.856290899780403,-6.777861265602243,16.800467194094796;3.9024503285343535,3.697525138487118,-11.51096741995336;-2.9391130466213986,0.8239691372995798,-10.820418966428289;-1.8756215380225416,2.9824579343554096,-0.4779436761593069;-0.5347425836601595,9.083305481684233,-15.993103261493443;-1.3028115261462703,0.5002915725726987,-7.075257848359357;-5.234005282422303,0.06982980490858783,-2.399197731877616;-5.191352217186677,15.531647748857841,-14.783642892668771;-4.002161204824618,0.3528772185965988,-7.383140305211702;-1.1454131327084585,-3.3149703365540906,-8.035761128522386;-23.309600830078125,17.705230712890625,-5.847499847412109;10.387017610027979,11.643072227100431,-1.7828528075628804;-4.931459067519749,4.931224874516617,-11.166981657646275;-0.06551715007900308,-5.6275606235029745,-3.265608769765531;
31.857873194742734,-60.8022461661227,-3.3485827953256853;31.19023162035478,5.794044656143098,-10.224855928466853;-8.739382431063094,8.038265450441562,-12.211371996731819;10.886090398978855,-6.767384563639276,17.179259098007424;3.8642119577562832,4.3634669799986705,-9.111564958970181;-2.9378195527199185,0.8237062226503886,-11.47178014747612;-1.9111022514044416,2.9831922170224208,1.201297590356326;-0.5087216374232043,9.954552117809595,-13.44607318665184;-1.3035093064680698,0.5003555277571027,-7.406583556567397;-5.271997069703438,0.07087333992208565,-2.789337691668838;-5.135034036976573,16.599819368155693,-12.461458074283582;-3.995130562812265,0.35186640694047416,-7.064618532286685;-1.1281792073616803,-3.317483615544173,-7.807666260450049;-23.309596531634316,17.705227447929918,-5.847498769094599;10.443923636331913,11.25584017510103,-0.7853427641333518;-4.816510913328707,4.906395792164112,-8.546876037179228;-0.04457019255542543,-5.6291984853200905,-2.8052605760225835;
32.2235721912763,-60.830872447861736,-4.331057008705167;30.963164619314714,3.3729716173521846,-11.47282091298393;-8.782768257439724,8.040459292143042,-11.587622493829741;10.899597089099448,-6.754033605936011,17.37670108903834;3.9211895070819986,4.56516037484271,-10.638639338915427;-2.9398042187162132,0.8240950410005984,-10.472782622083614;-1.9223818840981808,2.9831854335095005,1.7358588886500843;-0.5139631374003725,9.889206150428242,-12.974450930323309;-1.3018525384808544,0.5001482488830312,-6.611125030444846;-5.2398039083722585,0.0694830254772134,-2.458280194686224;-5.157954504354288,16.244985422642277,-12.923070645044902;-3.9922528626591918,0.3514722290310974,-6.93535658537997;-1.0809534680161073,-3.3241028290892496,-7.182818060553333;-23.309600830078125,17.705230712890625,-5.847499847412109;10.453600544037743,11.657599118529461,-0.37766274235716474;-4.88528352106539,4.918334454690652,-10.10123147924322;-0.1050403404622416,-5.629099487860366,-4.123374802667613;
31.67435080605347,-60.81362086893821,-2.872185466291909;31.086793177262525,5.148927259570568,-10.549027795866518;-8.642622193031215,8.013918631666469,-13.672343638802861;10.751095641817697,-6.805009184777666,15.49915571978788;3.9030473170272666,3.6032898973281404,-11.678818934988291;-2.938331851462866,0.8237520150076029,-11.228821316899758;-1.8985564648876743,2.9830215798509285,0.6080469338850093;-0.5458679879534987,8.867973401973513,-15.800131612170517;-1.302508330048268,0.5002482364127336,-6.930859623153659;-5.2383665531266175,0.06957796193814507,-2.4438677303233347;-5.181285690941595,15.55078618051475,-15.632995669834466;-3.9901218763357043,0.35134342307915073,-6.840427880946111;-1.1516987711279387,-3.314303601260513,-8.118732610456755;-23.309600830078125,17.705230712890625,-5.847499847412109;10.334544246906463,11.318138591263606,-3.0124629603371322;-4.926893837162562,4.924862911829601,-11.03521930660249;-0.07994001607897543,-5.627637688528212,-3.578582721901328;
31.079997277845827,-60.76553145799907,-1.273884128716793;31.27694019888323,7.024308797968549,-9.586088271040447;-8.667149945209298,8.023088687717827,-13.291358442659384;10.954485820106958,-6.745738643923013,18.038880328916843;3.867870772512404,3.142785852369368,-11.32853804804906;-2.940096533837025,0.8241457888122944,-10.32704515605561;-1.874348567982515,2.9829602169661236,-0.5372650333824348;-0.5739913062368096,8.318898098026985,-15.20344596180672;-1.3024617364245372,0.5002844772381096,-6.910107637732821;-5.231214043491731,0.07013358926005472,-2.3709503120465802;-5.242448069325855,14.845307080950347,-14.26347622695843;-3.991243220090433,0.3514662196983181,-6.891046111145782;-1.1773238897057678,-3.309821026471005,-8.45963851302092;-23.309600830078125,17.705230712890625,-5.847499847412109;10.496600824182552,10.452915282749833,-0.11893412410275671;-4.928066568634266,4.92690217666194,-11.070631016023688;-0.12206296827740477,-5.606360379110822,-4.570399372090903;
32.457180882699596,-60.839192467153,-4.953085576376239;31.087818863050583,4.627119974348173,-10.827676732309667;-8.764056701549219,8.046032451069218,-11.835358113539334;10.845043977615626,-6.7802400838634655,16.6633062616648;3.8420694650192897,3.5606914715222,-9.793736674651566;-2.939742961386628,0.8240705867485584,-10.505738041196869;-1.9441665278322673,2.9827626440580173,2.766662589540764;-0.5469285373990648,9.346525880106615,-11.453923076592389;-1.3010722628244331,0.5000538412204201,-6.228089143130597;-5.211436809579534,0.06845576257125568,-2.16718122760886;-5.183025057833306,16.180604947613137,-10.474447741411906;-3.9957423269506926,0.35193837342242984,-7.0936459377081515;-1.0568954424909023,-3.327163695729986,-6.865116264043655;-23.309600830078125,17.705230712890625,-5.847499847412109;10.579404334869553,12.466668845685183,2.8515355114656353;-4.8285477974549,4.908014702210079,-8.817476511379779;-0.11212835307774317,-5.626513002678885,-4.28187965348955;
32.978464441061035,-60.88436038420967,-6.356510702729051;31.08879353591606,4.602067380734114,-10.841121384233617;-8.677699791802963,8.028266270656655,-13.123354465719444;10.630526523015288,-6.8282151946458045,14.030287860544489;3.8354486900398537,3.176236850197403,-10.223923395618796;-2.9387357415458335,0.8238749784980758,-11.012133352545492;-1.942678244695846,2.9828376247883015,2.696283742963663;-0.5614582744015453,8.915641893999576,-12.434674222973054;-1.3013876102610396,0.5000977512344977,-6.388607567772565;-5.258620793214631,0.07134404441040638,-2.652571052812946;-5.1214197981089375,16.902438068342487,-11.815347033783969;-3.9925533800093236,0.3515558160989592,-6.950239224926472;-1.0747511100309306,-3.3248507923510147,-7.101084225460525;-23.309600830078125,17.705230712890625,-5.847499847412109;10.538093189776564,12.87553253254156,2.2604317492046917;-4.82553328151035,4.907268698104048,-8.750099509549374;-0.17291739784162038,-5.619895748827638,-5.61838546031265;
32.68362025820392,-60.85249446957356,-5.558627175758028;30.90446961495607,2.98961665174701,-11.665540594772233;-8.72372400225761,8.029968526054613,-12.460262946537197;10.819371663872905,-6.781341845394022,16.36585567083219;3.8593274307827414,4.110059154275989,-9.430733653713828;-2.9371374698059114,0.8235072827834785,-11.831375898342788;-1.9278942602032296,2.982423847926754,1.9976671343316372;-0.5352737920929179,9.59156333990569,-11.622969768761694;-1.3030213854571422,0.5003365763587517,-7.179160423616137;-5.265661643791162,0.07160109629707485,-2.725019679620932;-5.087229460259388,17.34642076688817,-12.211217274217585;-3.982337469871985,0.350501304820524,-6.489923807720503;-1.1346772031123717,-3.3158167374770104,-7.895092034929131;-23.309600830078125,17.705230712890625,-5.847499847412109;10.53013020161124,12.362594062882362,1.8348049447140689;-4.859179668346896,4.92178454044256,-9.54130735006847;-0.17681257823607613,-5.604148070817098,-5.767864416530844;
31.47880792864503,-60.7887912276129,-2.3395389902192156;30.764680565718777,2.1993024571432898,-12.060175930733672;-8.622974257808938,8.003344095401898,-13.986835875611279;10.828732966922104,-6.783124083813525,16.466913997348545;3.978490155356874,4.252329561605299,-13.02245758697141;-2.936409367588179,0.8232993561928101,-12.201824217272371;-1.8887167598490737,2.9831669779823504,0.14165970308266346;-0.49392607400953725,9.620316709287895,-19.202386080551225;-1.303207166383263,0.5003417096344757,-7.276002263075129;-5.3256850093831165,0.0735513632587534,-3.341200324316837;-5.066565872011205,16.97528707459431,-17.76572326580234;-3.987296672882146,0.3512310995865889,-6.714106293735589;-1.2153707849634043,-3.304032940557684,-8.963862570518758;-23.309600830078125,17.705230712890625,-5.847499847412109;10.235666832678403,11.962017140121164,-4.644902753844316;-4.848944582224882,4.909267501343622,-9.269322468884445;-0.24428988595625548,-5.600099668898696,-7.2407666513710165;
32.07611726135266,-60.845112452443246,-3.9578418532822375;30.720238212019545,1.4331403128170261,-12.459401949715746;-8.309679435464746,7.924248024408508,-18.70723663676596;10.629181248222583,-6.839771267587696,13.979205003762129;4.0569271845596315,3.9778601939150797,-16.021408658753675;-2.9345125709922293,0.8229242004526497,-13.154562840985552;-1.8785948116024238,2.9836391325240634,-0.33688653848355316;-0.43699709365336753,10.20745458456923,-25.00493838330268;-1.3024151730897258,0.5002376018372675,-6.884167021576736;-5.34041812217332,0.07429797679016993,-3.492885521146551;-5.019502351966601,17.112751654859782,-22.14361869496836;-3.9742985672410005,0.3498403603820814,-6.127942478769265;-1.142620092890131,-3.3150851459467403,-7.999560408651371;-23.309600830078125,17.705230712890625,-5.847499847412109;10.196748242062876,11.519316649571826,-5.6951060219004415;-4.9402702465565795,4.926879862603335,-11.335408595922091;-0.09376695462540244,-5.624570044212361,-3.8828723599794563;
33.27999211770723,-60.94510345650588,-7.196383995617973;30.731959206082376,1.3619093362282269,-12.50064030503934;-8.484897914883124,7.973173132807866,-16.053068092684818;10.433166271106883,-6.88217404049158,11.576901071118353;3.9324957261345745,2.6113861793370163,-14.375266695732652;-2.9354370617636962,0.8231298179512166,-12.689469009386807;-1.961379288702997,2.9812341871193504,3.5841876953380276;-0.5155047445624734,9.504636155446537,-16.097984055778717;-1.3010289086529667,0.500042170843571,-6.212814716033973;-5.3262600258322355,0.07409509904778622,-3.3473665734605396;-5.015813822682527,17.9466856778092,-15.592535459130428;-3.9865834198590777,0.3508569975027414,-6.680176154788522;-1.1492031000417389,-3.3148678309929567,-8.085232675735488;-23.309600830078125,17.705230712890625,-5.847499847412109;10.34999426608442,13.159351032461556,-1.5470375844208395;-4.915336770216842,4.922944355020334,-10.77430901084185;-0.1600997652458011,-5.624247999900099,-5.3315675229336295;
32.93984277245141,-60.883829944950726,-6.254997879721024;30.926601886652374,3.2384375406386368,-11.53705243115363;-8.6077417599283,8.006085254086793,-14.192829330231813;10.650010792355742,-6.828189022236158,14.25587542037126;3.8773899029731873,3.102414293237832,-11.736266822701868;-2.937441585874577,0.823561242888987,-11.677726305379624;-1.9504920438041413,2.982194120170584,3.0667539788503655;-0.5415395641310617,9.211050384222663,-13.659251761940483;-1.3001243497188828,0.49995600297934983,-5.776150440181629;-5.157098817902998,0.06794348965304746,-1.6094527161535033;-5.104212874145913,16.977038697875702,-13.132562451189939;-3.979599376714863,0.35005558614134585,-6.365710435657456;-1.0671267034163296,-3.325446314459786,-7.000982779224635;-23.309600830078125,17.705230712890625,-5.847499847412109;10.516703697243576,13.12019643664643,1.9565493930310953;-4.787915141872501,4.900346214686297,-7.9005211820789745;-0.08376429993014432,-5.629285978467067,-3.658527958011166;
31.81921817329249,-60.80044361725404,-3.2467764650447886;31.17106674924555,5.584354681512986,-10.333110067868168;-8.594580094056225,8.00105660010429,-14.395111892167519;10.87323445162215,-6.764535597759855,17.041080194449716;3.858904845165654,4.2826724042885775,-9.088578533401048;-2.938004317916223,0.8236840827370141,-11.391051868723366;-1.8774914620300895,2.983541132198781,-0.38900564925603337;-0.5737956058094831,8.599353861378106,-12.864122752587324;-1.3035686431529077,0.5004213622022746,-7.441064730207647;-5.322105032726471,0.07415800115886569,-3.3051070143491796;-5.153406073711175,16.263238480775644,-13.321380348683762;-3.99122083282905,0.3513451481887686,-6.888351906029806;-1.1951430977727235,-3.3076331319007517,-8.694660391313326;-23.309600830078125,17.705230712890625,-5.847499847412109;10.469722093548771,10.020465859973482,-0.9064014868223026;-4.940951372173943,4.9327313907612185,-11.373743840517273;-0.26034110016348594,-5.58544588411857,-7.627444270161798;
31.034412732643364,-60.75364530231974,-1.1468048871090575;31.23739557705571,6.417102003534139,-9.901817471333187;-8.50203004899617,7.980011894470759,-15.783312359507233;10.97492994678914,-6.739732902521316,18.293992130034315;3.9102745631273854,3.3121863835365626,-12.40532703771437;-2.9400032324057825,0.8241310795592612,-10.371509557102515;-1.8591347061573456,2.9833561814728524,-1.2571032569747502;-0.5784618816431012,7.98605534917167,-17.212597232712774;-1.301801809175444,0.5002242293744563,-6.5927462085322;-5.238509440872291,0.07023971476798849,-2.4458469182771543;-5.225538014244482,14.850045946681345,-16.218287584171538;-3.9849210850310963,0.35065947651788776,-6.605016032376993;-1.1998632253931232,-3.30668490046219,-8.757642142953129;-23.309600830078125,17.705230712890625,-5.847499847412109;10.448307051799919,9.988805570778892,-1.364485831610048;-4.998110106626634,4.939208026942252,-12.649357321378634;-0.05843981555518607,-5.606667297179705,-3.1792596547528507;
31.20100479373918,-60.76300302040714,-1.591920797479082;31.284244580133958,7.170598505040414,-9.509743684906848;-8.724751605525315,8.03513172159786,-12.43179467923095;10.96761772534052,-6.742590388850776,18.20031595020952;3.878375193773428,3.198525474523731,-11.571615355707502;-2.940658826469934,0.824255509376103,-10.039195449631551;-1.8668580110839752,2.9826093121333375,-0.891985922383555;-0.585409367660322,8.096062781538315,-14.951912681073713;-1.3017396406435482,0.5001814133864705,-6.5589456299142785;-5.218564822175458,0.06936809966381659,-2.240875071476811;-5.232807525873981,15.02861257493663,-13.967967032666095;-3.9958425701359053,0.35203226420227934,-7.099078446169094;-1.193342651470815,-3.3072375315842644,-8.672262021426695;-23.309600830078125,17.705230712890625,-5.847499847412109;10.47041388008203,10.384481017637166,-0.7294890567871383;-4.900332603824519,4.923021610450588,-10.449309198109816;-0.1037769766646979,-5.606017736938142,-4.1707368185308455;
31.446616784297785,-60.767161551009885,-2.2418784011962347;30.95542760650556,3.3299106124617235,-11.494294814126592;-8.281646471200492,7.908853053713493,-19.164112229961283;10.732525124579295,-6.799696010650704,15.302779889358758;3.9954955543303834,2.8927439052720936,-15.95489127932021;-2.9391737224835475,0.8238650504456466,-10.801781870264872;-1.8787455020820936,2.9834151038943872,-0.32971117831179975;-0.5673704886412656,7.926238171897908,-19.890161469894593;-1.300196810826536,0.5000146038577832,-5.809583100734437;-5.318403554140829,0.07392742885211182,-3.267271552260584;-5.114452812337719,16.251272371815073,-17.957919571034616;-3.9898632939054495,0.35123168325810994,-6.829188885289286;-1.1900190483558888,-3.308758583918578,-8.626258961953903;-23.309600830078125,17.705230712890625,-5.847499847412109;10.294337682141634,11.99608681051826,-3.3483220278276096;-5.027783370861544,4.945518164159724,-13.322812727220244;-0.17308880883022398,-5.61373884598309,-5.645910440278409;
31.71675647389867,-60.81973885386342,-2.989493730531618;31.054855171136918,4.364889083835299,-10.961340008944182;-8.611072428443487,8.0085867132264,-14.134527668749;10.799619421774251,-6.787458120850027,16.117414976415667;3.847617991193849,3.9357675036607773,-9.311768849221034;-2.936392899282004,0.823377203797815,-12.19874933453535;-1.8991090756852647,2.982795155202113,0.6351343863177089;-0.5306057159383137,9.502057403282322,-13.26784608589139;-1.3057951068837366,0.5006825545457186,-8.520401495541389;-5.368153806016265,0.07575862558000789,-3.777943990566155;-5.1136111577666,16.769267851575215,-13.863228848958963;-3.9822356081194927,0.3501944954023289,-6.478963822115571;-1.177491105720876,-3.3099497680831638,-8.46150911560993;-23.309600830078125,17.705230712890625,-5.847499847412109;10.487223703640307,11.07461013644919,0.03232584467834305;-4.89139925220615,4.921129309893812,-10.241511809646884;-0.2400588569962648,-5.5926541430913845,-7.168276460227953;
31.129836517267687,-60.78433197560802,-1.4181309918174558;31.02713615858264,4.343814594628826,-10.96663090544853;-8.64173407669082,8.005161977162825,-13.70825300160729;10.860586721444268,-6.7745569147160944,16.86166360585247;3.950067008167619,4.107732110977182,-12.32681669644775;-2.9359282958405504,0.8231966780396464,-12.45183654441178;-1.874054817809838,2.983230914170938,-0.5523882647353366;-0.4804675336068738,9.968738790122403,-18.662219939272354;-1.3045930323613757,0.5005156217177252,-7.939634674890287;-5.286855768975757,0.07134498686667759,-2.942458809738922;-5.120699000594214,16.198246934119872,-17.676084488347325;-3.995431754998602,0.3522438945686842,-7.083008498302917;-1.161304775477119,-3.313048077874967,-8.245822802049792;-23.309598718382208,17.705229108913823,-5.847499317667208;10.262941769566904,11.472919403581177,-4.431355772591852;-4.87201125307809,4.914009130503621,-9.791588603656152;0.00012429433695617824,-5.633359791444849,-1.823610110038798;
32.1786999866191,-60.821284952105806,-4.206873367212433;31.09855285766799,4.879341052664422,-10.695604153133129;-8.897995342475765,8.07639615074373,-9.828847240980911;11.028933027797516,-6.713907569083976,19.003844857364843;3.851716336848309,5.393035777807627,-6.9682172485505305;-2.9389111730266855,0.8239171747632902,-10.922821201745805;-1.886076770941062,2.9834287264245503,0.016980073374018825;-0.5352996187372975,9.880516541274394,-9.14512254152145;-1.307097382527126,0.5008769538836073,-9.149610084187007;-5.371520823014121,0.07631590879744352,-3.8127937890648176;-5.141405194851651,16.810772592244508,-10.423851203371116;-3.996551599450533,0.3520587320143668,-7.129459503031508;-1.1961419620710987,-3.3069144258054997,-8.708907808408147;-23.309600830078125,17.705230712890625,-5.847499847412109;10.56247713055247,9.812615765380245,0.9121435954027002;-4.90517298034765,4.925770537425319,-10.56421918184313;-0.4065759410410011,-5.568083110825733,-10.872139529063102;
32.13440410218962,-60.826859271150305,-4.094675367057047;31.245457124109286,6.688424748756211,-9.759447297114322;-8.68631503470481,8.027377171894091,-13.004792570732082;10.885426350675433,-6.763635744740562,17.183637992317486;3.874607125904493,4.379097814297955,-9.441153919385945;-2.9395451326020114,0.8240386847357332,-10.612071122835616;-1.9060742935357318,2.9832909802160974,0.9632810206584678;-0.5381912249951883,9.314168948761937,-13.390702791568518;-1.30297713634536,0.5003092766774468,-7.156374248024521;-5.225110574481779,0.06884357952293148,-2.3074374227917;-5.2400813985416255,15.107241061871548,-12.332565567092077;-4.004392180638158,0.35310589985028523,-7.485169744441957;-1.1731950399767894,-3.30940941679869,-8.407172394158597;-23.30959861612509,17.705229031242546,-5.847499292014758;10.487862085317968,9.925438303476303,-0.5092614423176833;-5.016300688550451,4.9430361581420135,-13.061548426025903;-0.04391408800381993,-5.629774873245968,-2.7896660092657144;
31.444902495347442,-60.780754729262924,-2.2462091541782345;31.15283741325316,5.448048747547014,-10.402537749803068;-8.767387099267932,8.046106076572174,-11.787555500621965;10.940593117335386,-6.745481546783976,17.880563366986063;3.8561716312391714,4.321176853340562,-8.931837477777242;-2.9372796031083195,0.8235382061461599,-11.753787034776881;-1.8742291831075606,2.982590018118049,-0.5431665934135703;-0.5524462220865726,9.118656007047914,-12.445864247976326;-1.3056670660157812,0.500662474633919,-8.458099699122213;-5.35256301083949,0.07523109354713206,-3.617643559546445;-5.137454591566731,16.535483255889613,-13.02539052711991;-3.9906639563371016,0.35134277305419337,-6.862802119052604;-1.2018471953792027,-3.3064127941302437,-8.783956605138554;-23.309600830078125,17.705230712890625,-5.847499847412109;10.476141643334474,10.60426790736046,-0.4794013374558287;-4.796537075224301,4.904790458083909,-8.103492752858564;-0.27975601050465454,-5.589564530436709,-8.039406512198871;
31.28398602424255,-60.77069387818221,-1.815289071728404;31.126705136710495,5.447368430405187,-10.398885219924798;-8.939723147838718,8.084243422784052,-9.208953909036865;10.968963773342185,-6.742363496333115,18.21631802120034;3.870821748977929,4.0965369595051975,-9.79641012505149;-2.9403147432512293,0.8240694422676101,-10.230405746476354;-1.8958457076751822,2.982175824041271,0.4800321564171107;-0.54686501836054,9.161406613948236,-13.035840752223962;-1.301560670258152,0.5001343951203322,-6.473270800000784;-5.283256657900028,0.07152334034022696,-2.9054842614603476;-5.169344878956829,16.14051335808012,-12.491320515375302;-3.9971430339308465,0.3523805510159398,-7.159012810090901;-1.1419796774414315,-3.315213334220579,-7.9912441589827665;-23.309600830078125,17.705230712890625,-5.847499847412109;10.395359145773162,11.395218903896788,-1.755585202024704;-4.776858010500077,4.904639437528002,-7.673695991393866;-0.08543832873164393,-5.627198917908913,-3.6997118242624003;
32.22130234125201,-60.80403662391402,-4.307589008175695;31.240381796301428,6.518846036490878,-9.848381016474118;-8.867376046848229,8.06915406849358,-10.288294491311062;10.8754656508258,-6.765671626536788,17.062931618763834;3.904657454513454,4.6797580567267305,-9.860389153855882;-2.9393484503305394,0.8240010240843662,-10.705110857759744;-1.9442382682596921,2.9828679101875943,2.7700621887746673;-0.5341700214882099,9.617205044320338,-11.551942088692668;-1.3040734839292167,0.5004124893333493,-7.689265802552527;-5.240733170257394,0.06905302731472736,-2.4678558485654736;-5.263527451176233,15.092387294565352,-9.823532559195154;-4.006690868242904,0.3533787446350587,-7.589247101614431;-1.07540075043122,-3.3250375040094853,-7.1090196147841045;-23.309600830078125,17.705230712890625,-5.847499847412109;10.660596171458463,11.28786820652326,3.775255047734421;-5.05315267314509,4.952826854928572,-13.908210124584505;-0.007808958209250213,-5.633293515542699,-1.996162044559906;
41.97854809551664,-65.1714408916136,-34.64319429669007;29.71008449279356,-5.933579844667059,-16.1828295076916;-6.905644345616088,7.0853575020475095,-42.668828456290704;6.148422926211679,-5.5511222507064835,-44.39726902288732;5.111543448296806,6.4923162724737224,-51.42180823427312;-2.8483939303361834,0.6895633233996428,-100.38033420508498;-0.9949263204352928,2.5675001335728846,-48.25814508702425;-0.40120211902077596,9.671137426038344,-37.72035440080597;-1.3051474308810096,0.501140171732901,-8.248362632807334;-5.541671972166898,0.09928876780227731,-5.576685400516237;-4.708807705892021,17.61566244779433,-63.99844451866469;-5.067403114923957,1.9613098632760047,-105.40364813285304;-4.170088962275315,-1.4011302071115144,-56.462244222316585;-23.309595476564862,17.705226646534786,-5.847498504417172;8.055584504579977,3.271599034152348,-67.70199613434656;-6.977859240090448,7.863673442304607,-98.89919655172908;-1.8313997706331737,-4.799999685742295,-47.00794835469069;
41.63857059414783,-64.86006124905838,-33.349592549732144;29.818996548187815,-5.293470495989992,-15.865063206648767;-6.891276836648556,7.071611578229598,-42.95729078987212;5.921095038339642,-5.288901735566809,-48.511370294716265;5.005976274158793,2.9354184191922212,-54.955706573440516;-2.8498177525697903,0.6816202630624968,-104.39307690292074;-0.899672295007514,2.451844447575723,-55.391355349097786;-0.39953177319902433,9.532429929690705,-39.502626100988614;-1.2959387745934985,0.49966328301009844,-3.763036749809619;-5.392184415828453,0.08031320229553078,-4.027573827255963;-4.729522665442021,17.255580839271783,-65.19676757297177;-5.065756406876156,1.9662770125263844,-105.63546895594186;-4.2386940585181865,-1.2886858362471705,-58.19337148514985;-23.30959409314435,17.705225595731893,-5.847498157369237;8.043984826401799,1.9093570538451707,-68.28840944074969;-6.961083039160752,7.951863931775114,-100.8846227428091;-1.805238863810941,-4.827164801226313,-46.18238789657138;
40.19978224638818,-63.72794881490068,-28.182014929850627;29.952527947073975,-4.250443763490654,-15.334038987705226;-6.882238124299285,7.059309843614665,-43.17467434901528;5.91813163239992,-5.355456546084226,-48.010020187544264;4.962799648318658,2.1329625591058083,-54.97836893497246;-2.8490113900741716,0.6816827495451587,-104.3054214279576;-0.8610915928754049,2.4129899302604443,-58.00695449184375;-0.4348228256992898,8.554361363871946,-41.61277737418978;-1.2898709818166096,0.49938767956060653,-0.8401228510469788;-5.062991483314021,0.07079010675968495,-0.6448273439129578;-4.758948851896313,16.77648899344874,-66.20307945784053;-5.055023984106834,2.004102273087029,-107.3989017705101;-4.203670052917693,-1.3350063347031005,-57.43397303898103;-23.30959982624598,17.70522995041252,-5.847499595588362;8.031238063909013,2.3971723230178266,-69.67568931555421;-6.955265755077728,7.986227590367512,-101.65748043974163;-1.7769085861610097,-4.846070956313345,-45.44958353493614;
40.29845517367138,-63.73934063779224,-28.430156781909524;29.727566138720473,-5.743545073841395,-16.084662876607535;-6.8518060164618175,7.03206350614093,-43.768246395032364;5.645344852865541,-5.033120760716129,-53.02482378972958;4.975725664791299,1.6315858795466645,-57.00990718939304;-2.8486475362021264,0.6843082171572963,-102.99606185586687;-0.8282523304509353,2.354864337968096,-61.16767450813596;-0.40365757401848085,9.395271136866059,-39.94756596761197;-1.2917259933259648,0.49941428606536326,-1.7290028382963245;-5.371046504100166,0.0898637033557614,-3.8169046328804055;-4.764436163330383,16.746537668392666,-65.25259524854003;-5.065627065376517,1.967876808603844,-105.70562272909535;-4.291660477403199,-1.208620518957067,-59.45551283040368;-23.309593017859182,17.705224778980515,-5.847497887620591;8.063842543293754,1.4223988684712865,-67.14437769992044;-6.933168018444941,8.083544802974512,-103.86772366088209;-1.7972902849497259,-4.83467482150365,-45.94341755542319;
40.78294318148302,-64.12756913877494,-30.17849986029142;29.589131398772786,-6.6882495436565765,-16.559960416872286;-6.881263207492778,7.058121552557304,-43.19730131192058;5.734180804482402,-5.17192409060948,-51.09902307747905;4.924768353161851,0.99297111305566,-56.19763340947235;-2.8500414147109856,0.6779812439101303,-106.20013716443808;-0.8509262976500659,2.400829348332851,-58.74734620014357;-0.3938829041191961,9.486237496086845,-41.298062934309606;-1.2881248783581223,0.49933129683857874,-0.0006588150835728104;-5.090265725400196,0.06935202941049448,-0.9251542676618943;-4.756541374777392,16.86862189601697,-65.24763239341247;-5.053131218306224,2.009645136183799,-107.65362809658266;-4.17917177490101,-1.3848607261726913,-56.70607215791541;-23.309599823547064,17.7052299483625,-5.847499594911305;8.073488327570336,2.1386616263257268,-67.02446603493127;-6.932808869926767,8.09224134838179,-104.0544088313472;-1.7663800164495969,-4.863692841245354,-45.016375873107584;
40.54316213048243,-63.91480313333835,-29.279387875579328;29.890101727007572,-4.986760413592785,-15.718576236367827;-6.904576254479878,7.08604540829102,-42.67421395167146;5.7683991988518795,-5.223478306425478,-50.369467578681515;4.943596984945982,0.7014908445316134,-58.08277562948782;-2.850654506174361,0.6751357303321477,-107.64833514419466;-0.857806124117494,2.4140430337116086,-58.044977278905044;-0.3407133196248557,10.636851387813381,-41.43198650978652;-1.2877190672414593,0.49933207738888497,0.2097851193221203;-5.042226279220272,0.0648453853515875,-0.42944996985394823;-4.721011376910468,17.29027620677113,-66.82917608758679;-5.052648313716475,2.013182031616582,-107.81750623283924;-4.123467437734775,-1.4747143412069121,-55.31696428877158;-23.309600830078125,17.705230712890625,-5.847499847412109;8.069153238722846,2.013321102494453,-67.21233194920009;-6.945593308566302,8.039189577935757,-102.85086827467367;-1.715113971116003,-4.918242127352535,-43.37629279119987;
40.467748757588936,-63.85977257157386,-29.016031418036942;29.660010920066043,-6.303166775481442,-16.370438923442048;-6.925952767399066,7.10313635906802,-42.27800394381512;5.665299143148998,-5.088689756816021,-52.378466116084994;4.983954776458639,1.8555577097291638,-56.830092751224946;-2.848718143598606,0.6842102491637112,-103.04925398513413;-0.8332943225461715,2.368598378877804,-60.48631382965244;-0.35122532972968584,10.366175178024786,-41.87265200842844;-1.289021507334558,0.4993415519885257,-0.4233191036077305;-5.379433463819702,0.08659852747586468,-3.9026217441569058;-4.716285063111893,17.398347482273227,-66.09125641789686;-5.0638230472177455,1.9746447052912508,-106.01947505147758;-4.224160306597967,-1.3154437772215246,-57.79401133037046;-23.309597797016895,17.705228409076344,-5.847499086531074;8.078925484015311,1.7734768449296254,-66.54815353604843;-6.9304476691893,8.097408055193496,-104.18045566900574;-1.760243009736732,-4.874614009036573,-44.749893579039714;
40.41070720365486,-63.818949746260486,-28.818261285159377;29.624732698366707,-6.506689203243568,-16.471329173275592;-6.962994800159519,7.139142957420363,-41.5287079047766;5.581781151006311,-4.9879328159343475,-53.92864916864001;4.999682992857788,2.094155021111045,-56.97599109702584;-2.8480306941593247,0.6875178552659545,-101.37400915623083;-0.8156222546263799,2.3366213583523874,-62.21702781967555;-0.3518700208393751,10.383147471143541,-41.53155429845846;-1.2891569727588856,0.4993433785332581,-0.4873972615769761;-5.486251395664888,0.09522338331272893,-5.004123250199742;-4.703190962902751,17.60844857860683,-65.66448509388626;-5.065213477072705,1.9694736186234378,-105.77953057753284;-4.277176126154786,-1.2308824817400048,-59.10653691368641;-23.30959677971958,17.705227636370502,-5.847498831329424;8.089604035234812,1.5951121188179755,-65.88140887349941;-6.9218458601989,8.132821380596525,-104.98760441663558;-1.7944607749237247,-4.843621601520487,-45.75995041098558;
40.156122264939356,-63.682201113835625,-28.00518488141686;29.71339413111715,-5.965169125780807,-16.20130290851329;-6.9327954924418345,7.107822599620651,-42.15859321879343;5.632924932538091,-5.046686236686696,-53.005411505766254;4.965512242038423,2.1390134018181493,-55.04371955957978;-2.8482249483068753,0.6866061398387283,-101.83286007978688;-0.8137543645388904,2.3301591286544157,-62.52944698935333;-0.3749294412399197,9.909148623877368,-41.21758214264609;-1.2890367467069554,0.4993437198487539,-0.4300406863111255;-5.325865920095086,0.09061304995329153,-3.356577745927033;-4.705135961391905,17.610069131342495,-65.15520069058996;-5.059769020227471,1.9871614591340563,-106.6066314146934;-4.236370408996558,-1.2916757436480957,-58.14443240358115;-23.309597775513453,17.70522839274299,-5.847499081136674;8.06106425718038,1.94087611932693,-67.84838823762422;-6.9200068362319564,8.136619855981507,-105.07674247301357;-1.7473157960238945,-4.8887861123743495,-44.331767215994525;
40.790640894808355,-64.18184037155171,-30.29501241812926;29.878420292936443,-4.904444319251892,-15.670211794583224;-7.108588737991654,7.210092827898492,-39.18106403491943;6.36556295253402,-5.399780666685615,-42.722820785405176;4.972425744877922,1.0313875305428557,-58.81580520100782;-2.8499226133016373,0.6863374372036175,-101.99480647258699;-0.9042585733847373,2.4431198005184678,-55.54653298942917;-0.3663670773288225,10.3455869176307,-38.90842522124392;-1.2914107154215,0.4996418986967018,-1.5780597282729416;-5.223623069729801,0.07536763067913992,-2.2974510118647657;-4.740134943771949,17.091928556590567,-65.65143456358417;-5.043595030282978,1.8804784386097588,-101.62376593631144;-3.9597128271435245,-1.5898985400277679,-52.712486397073;-23.3095998074151,17.705229936109156,-5.847499590864406;8.163850117562957,2.845417790869186,-63.54490014029174;-6.855086469267198,7.77625167500251,-96.53067225855037;-1.6016656707854882,-4.974222552716804,-40.60162843961434;
33.999050185671244,-61.3605956622813,-9.455048869342184;29.918132892612253,-4.423691395608494,-15.418801079305613;-8.329283022749742,7.900617617987493,-18.53948983107127;7.588839457206329,-6.375498570818006,-23.83886100286097;3.749432011798096,5.108147723341718,-4.410637707177623;-2.8882645308172985,0.7931019436314193,-41.41236254922601;-1.1998019076535218,2.7405819733562744,-35.3314141909732;-0.5035225901215694,10.0067086357005,-14.28945110860903;-1.3314914729822667,0.5152285281661558,-23.057051009243374;-6.709792883919805,0.5244211430202138,-18.543729747320196;-5.192602641666533,16.502826056973756,-6.954480769731936;-4.48385549375537,0.5868165656141072,-32.304192212917485;-2.3466722198875245,-2.8724945289248027,-25.02149041877778;-23.309597051917336,17.705227843120603,-5.847498899613952;9.88898571259142,7.8710694533871015,-14.85745647461226;-5.5069202705219675,5.530657465851212,-30.71015001512574;-0.6343173106988635,-5.409389389270325,-16.800994985260694;
32.170792969390156,-61.009792934128406,-4.277274428760679;30.882171058435055,2.723967856066676,-11.802851783576674;-8.85191933909245,8.066341691651933,-10.517979561107927;10.243231960590663,-6.879181220817612,9.320096868486461;3.660027714427083,2.4441407430686857,-5.890295457657865;-2.9368546556516053,0.8232637563533975,-11.994461290094177;-1.7437724462685702,2.9709832731199297,-6.758607431859057;-0.6127104806357683,7.746308899600797,-12.745757483002578;-1.292869617695546,0.4994789197256913,-2.276553342399512;-5.513581155724446,0.09092881870770689,-5.279855900251357;-5.17244627030321,16.819674656823803,-6.749721705654522;-4.0392201563505195,0.3594293521093471,-9.075642609935151;-1.2558977112279057,-3.294168130548345,-9.509192753748406;-23.309592944039036,17.7052247229087,-5.8474978691019555;10.909423257192033,14.929250773752985,11.704219067653375;-5.171092817470433,4.988773736853315,-16.649574394236748;-0.07125913435429669,-5.62932754933022,-3.385618903050887;
31.772588652476937,-60.93827935248925,-3.1867820871888513;30.53088739676761,0.6768297975731424,-12.81410964740144;-8.71896947004151,8.04000955641195,-12.497587742923614;10.115246543311832,-6.7748304029991635,7.634802286291166;3.7586194273953097,2.8012662449084544,-8.425667357473754;-2.928588963534321,0.8186124683609516,-16.775134875331617;-1.71805575366189,2.9513060668639346,-8.203491935677718;-0.5783394606499519,8.261253892020033,-14.900140047959223;-1.296117138397863,0.4996845855595696,-3.841738781224582;-5.4499693466403745,0.09108561393146888,-4.626611037404599;-5.131950043421069,17.27307511315335,-7.7308348262501605;-4.082622761113579,0.37183742097893363,-11.11094948018156;-1.2976153919493991,-3.2855239483761016,-10.068286530741286;-23.30959647742458,17.70522740676585,-5.847498755493732;10.841519385409697,14.97477991793012,10.600756956958575;-5.208326825721221,5.016062135299379,-17.64535995422108;-0.26817667900473047,-5.599293607284772,-7.752887818410746;
33.00575865163516,-60.94094393219992,-6.475592326607841;31.081546814012743,4.490387663048013,-10.899181282519658;-8.669197541158015,8.02564544169226,-13.253337866838779;10.650281252707744,-6.827679493757818,14.26019483874309;3.9682190356737372,3.734474736214669,-13.575766397235691;-2.9380287634017326,0.8237167830725426,-11.370474737455607;-1.907649064113523,2.9830514027474058,1.0384627621558489;-0.4990065992795687,9.699059826934796,-17.489397605732787;-1.299992502496559,0.49995991720304706,-5.711420360520951;-5.293844487858946,0.0722000004317679,-3.0140404908780556;-5.059502926048883,17.364112382493126,-15.180240879437966;-4.00623763484912,0.353461931557697,-7.568928126666649;-1.1364778890382992,-3.316090804978814,-7.917887079532496;-23.309594659394055,17.705226025836115,-5.847498299420076;10.364370672722673,10.747587099615064,-2.6415531946286195;-4.878025738922167,4.9156473799121425,-9.929806394357147;0.025625494661163466,-5.631059740078852,-1.2681518464840502;
31.765244787354714,-60.78278320147352,-3.0928383244853777;30.944196139152115,3.3478352136562073,-11.48182552993814;-8.320737392705317,7.928103943365345,-18.5369602592752;10.63094747170623,-6.835673869380747,14.012254758243524;3.9751202095163087,3.801933871803951,-13.653440341845103;-2.933945252228838,0.8227647100617197,-13.447238622533101;-1.9057280020692164,2.9834252239261976,0.9479675158944116;-0.5031039219518887,9.280682559610366,-20.43266490183002;-1.3015404799729526,0.5001146918185447,-6.459647331758414;-5.323338909723219,0.07381128355934076,-3.31756047463693;-5.057241965702196,16.969436470858568,-18.85355100577673;-3.9713146872388516,0.3491887675082987,-5.989144318367075;-1.1825144239791954,-3.3099820289614894,-8.526359315988255;-23.309600830078125,17.705230712890625,-5.847499847412109;10.26356248129103,11.849897854668255,-4.146124171956405;-4.868940739551734,4.913617839164138,-9.723544150959999;-0.1711423980874534,-5.609882572191542,-5.600889898833239;
32.297962652770416,-60.81687802617737,-4.5182383775381805;30.96177912285358,3.3771409712097182,-11.470312599266277;-8.771580712120167,8.035144315065917,-11.765116865971878;10.881938572069583,-6.767298031201098,17.131200544949298;3.884276656145686,4.112495121510836,-10.22018400964069;-2.938535661425143,0.8237597294459739,-11.118955079137026;-1.9338853716339828,2.9826909619856914,2.280951099673456;-0.5326969494691834,9.550450540040048,-12.451904286579111;-1.3017922511763822,0.50014531752838,-6.5801767804597935;-5.309098437148761,0.07318208534665953,-3.1709577415946897;-5.136096206363996,16.649477845320945,-12.229470314774758;-3.9867497953627242,0.3508651998581596,-6.686474194364051;-1.1077594392893917,-3.3203274516595167,-7.537616193427968;-23.309600830078125,17.705230712890625,-5.847499847412109;10.482493514258186,12.910839800246043,1.0818208450359879;-4.7938886358553034,4.908217559249867,-8.057660252147542;-0.13810235424468087,-5.625023106551514,-4.851667208363501;
32.149047257579525,-60.81639991166317,-4.125861345322714;31.1337934895764,5.175276381323321,-10.544218024891482;-8.792702076780865,8.051863550291642,-11.408323501707162;10.869577524548914,-6.770687766131556,16.978771115912583;3.8936587889014587,4.326987458549829,-10.131251120554639;-2.938813544982366,0.823890869069004,-10.983781402789495;-1.9379098624701077,2.982468918788069,2.4713682271363564;-0.5138311499782372,9.921858162041952,-12.761095612514763;-1.3033686505010416,0.5003358208279685,-7.342752462468711;-5.233655197334554,0.06902169207929103,-2.395076274891145;-5.171004854837975,16.154020339253414,-12.086179051448749;-3.995221245704365,0.3518956620896498,-7.068557710376555;-1.080520328293582,-3.324261676380384,-7.176639998887007;-23.309600830078125,17.705230712890625,-5.847499847412109;10.533214844660737,12.21877271549142,1.7057430645072889;-4.953843078183964,4.929616793414555,-11.641313718342774;0.013393399525079841,-5.634508492280937,-1.532037665857618;
33.04185943743859,-60.99859834725856,-6.6175761084871665;30.92482597225916,3.2185263865607916,-11.547203030654702;-8.457216153443563,7.968589996366057,-16.45957538206086;10.456010971819634,-6.873887638365344,11.865047320529872;4.039253490528016,3.4076434735200323,-16.44180058608275;-2.938429727715405,0.8237584852520952,-11.167943084132904;-1.8558125255596054,2.983660415541994,-1.414797134526682;-0.4737685628857532,9.818841868290518,-21.264972884983813;-1.3014584146993664,0.5001183799191933,-6.422126587074101;-5.332080941290875,0.07375845042857056,-3.4072438161822487;-5.092892641120707,16.47850779324108,-18.712574989838362;-3.998421554839376,0.35243437933952215,-7.216636012198484;-1.1293264106524084,-3.3169887343551743,-7.823687618097887;-23.309600830078125,17.705230712890625,-5.847499847412109;10.362795757082791,10.483000452865245,-2.6302401848691614;-4.97432007745531,4.933509039268607,-12.105638549482546;-0.0027232649535474545,-5.6318339258804215,-1.886176325654258;
31.444022913134717,-60.76501763826171,-2.2343754473914896;30.80853543244424,2.396965638743538,-11.962152862972841;-8.246428635088648,7.904449103498102,-19.67408251974305;10.71640321975266,-6.817636432183508,15.05812840169698;4.046464257450002,4.2100128343989285,-15.261137388653848;-2.9343675298958547,0.8228640573835156,-13.231962228643331;-1.882204290421367,2.9834827908359243,-0.16579146815608034;-0.45930987715569477,9.80934930163342,-24.154087574059705;-1.301951621181907,0.5001812294508569,-6.6578120837675625;-5.30361380606366,0.07229689729559631,-3.114413829006049;-5.039520167967072,16.828561189370685,-22.04873810053997;-3.972186539529248,0.34964790997471956,-6.032045706686958;-1.1833384840373502,-3.3094713992432196,-8.53820970444187;-23.309600830078125,17.705230712890625,-5.847499847412109;10.139772226364371,11.842345282995131,-6.728517831582152;-4.930350126867097,4.9257016716454185,-11.11399557676657;-0.05056180428243297,-5.625841271386461,-2.936553779880374;
32.52094500807601,-60.832305437338455,-5.1159868101825365;31.174744621337332,5.466875871466874,-10.395995898194574;-8.739861429446451,8.039894420162238,-12.199109735772781;10.772000109351662,-6.79117571981419,15.787060776044326;3.929191787057026,4.297014603253457,-11.301238067000885;-2.9369097916566895,0.8234917709940403,-11.935694202611145;-1.9229012425663743,2.9836141489433556,1.7600993275827272;-0.5193074536323337,9.700373678474694,-13.631175458261126;-1.303956620564269,0.5004038895139733,-7.6330238925494855;-5.3781287324833,0.07730440445504518,-3.881310943711673;-5.133112885705644,16.77096454582905,-11.460076188650337;-4.0039093230117695,0.3529683904760458,-7.462825985238339;-1.1069257481522365,-3.3208029333774647,-7.525754671985444;-23.309600830078125,17.705230712890625,-5.847499847412109;10.734567725739009,12.50177657442886,6.224593506375399;-4.997908388103646,4.9427237071590495,-12.6629320851194;-0.21685726433598732,-5.611646313702789,-6.597154791899903;
33.18943621933604,-60.93947739006181,-6.95594471637306;30.936437169023943,3.196239531031633,-11.561016786352468;-8.576380490566509,8.000042800109759,-14.659274224637764;10.565857559286872,-6.849020905875423,13.216785458878936;3.920629745257346,3.5649498419188186,-12.300481906744839;-2.935743005161341,0.8232133267497578,-12.53370054240268;-1.9453509071465476,2.9825404423021027,2.823904360572113;-0.5151344077571023,9.633737981768807,-15.008827503309726;-1.3027605123952188,0.500273445796601,-7.056432737305117;-5.2916456764518385,0.07224663732523331,-2.991779387567683;-5.054407814881692,17.580365455710098,-14.024313336700716;-4.000499808720828,0.35283767205362654,-7.3116671770436055;-1.1354423349862754,-3.31687090610351,-7.903090311576791;-23.309598983744475,17.705229310474646,-5.847499384236582;10.450160968991247,12.701113069303839,0.28938794939497164;-4.850085539355847,4.911171017704286,-9.303986793992413;-0.18244335322467956,-5.617065725445942,-5.8345381572565955;
31.829453458870383,-60.78918947504114,-3.2656042845470603;30.829351013933472,2.6939404063654004,-11.807865443987966;-8.448776276217316,7.961471288951436,-16.60390464621183;10.79285501809446,-6.794614794187863,16.015467166626195;3.9770497520125088,4.115085585996075,-13.174025009961522;-2.934932986206305,0.8229997149768306,-12.95331402966445;-1.9009665029591534,2.983473581679262,0.7223888527827373;-0.4957702835341495,9.45770628551882,-20.276801013582574;-1.3025559660926906,0.5002335193976607,-6.954061957443014;-5.343546015595028,0.07579297849423892,-3.526016422007874;-5.109145698718248,16.26985201563975,-18.3554866812992;-3.989551662398231,0.3517961183005424,-6.818052335608013;-1.210714127310468,-3.3037437336128668,-8.904676261649682;-23.309600183712405,17.705230221933178,-5.84749968526313;10.245673973145083,10.974305876623584,-4.902949236342208;-4.9450468526582165,4.928112104337325,-11.444544234195641;-0.0625700385173157,-5.62723398872206,-3.19871249236033;
32.60388911090149,-60.83994958685116,-5.339364928357569;30.976956476207423,3.772405004637421,-11.26175112312163;-8.698850957721932,8.024949734621675,-12.831555692279293;10.80922038114575,-6.787946070209109,16.2258660894577;3.8666737122712727,4.4177768431694115,-9.119207850216103;-2.9373612842655703,0.8235565687213018,-11.714719755752075;-1.9238066548918853,2.9835430156102234,1.8032743587467077;-0.5313944581509268,9.682098352786094,-11.564341569806908;-1.3029583194000074,0.5002718644003025,-7.1394118234402475;-5.287481414704329,0.07196211650374104,-2.948814248275187;-5.116478189217239,16.970987638058734,-11.84723462870325;-3.9833586661617297,0.3505346041721002,-6.534317665412423;-1.1229963917315247,-3.318462399870548,-7.73863161123668;-23.309600830078125,17.705230712890625,-5.847499847412109;10.457943690852987,12.062683073942923,-0.01176860970318927;-4.803644873203187,4.903836009542144,-8.257305441831972;-0.19904727019938312,-5.617565543682383,-6.194006853417506;
32.60553771065887,-60.86526460150509,-5.363529638931043;30.80314793992463,2.0087963888815836,-12.16877324537845;-8.307161367364278,7.918005063696142,-18.769590033816478;10.425909995679945,-6.870433301505979,11.513423004031631;4.011674288565618,3.2211791201987716,-15.880303703465348;-2.9351336221060267,0.8231033688854376,-12.834445088238567;-1.9221269330989368,2.982565166816124,1.7244152815655889;-0.48519526660508294,9.652412358124334,-20.592012750877977;-1.3012505154935512,0.5000670411828009,-6.313782674465432;-5.375726392216099,0.07679592019276717,-3.856173190538918;-4.982465854044851,18.030164600130984,-18.929066097550407;-3.9843246174462124,0.35082390884136616,-6.575236188148397;-1.173975748293616,-3.3109682667309834,-8.41403027435707;-23.309600830078125,17.705230712890625,-5.847499847412109;10.317937346199466,12.714951693210967,-2.4637122726329608;-4.969902255902562,4.933074162656174,-12.007405811569438;-0.15790464830665082,-5.620004082811931,-5.289028445611703;
32.43126925493861,-60.85670626281417,-4.900660115778892;30.779201121230777,2.036537073692901,-12.149445783850792;-8.398073520568406,7.946597230252499,-17.376289236144235;10.636665559726035,-6.839817544106832,14.066576564787637;4.039744168021721,4.13529578956686,-15.177422895519303;-2.935090991128387,0.8230628219377302,-12.867323562104863;-1.921476988738338,2.9825386241244236,1.6941725704811366;-0.45078611693639953,10.158342286157515,-22.79739544996512;-1.3030817962084227,0.500307209749398,-7.207153318084046;-5.273628692867715,0.07096846451307927,-2.806189793166699;-5.022360811871922,17.315860201599005,-20.082684145198414;-3.9893031735881084,0.35183371432692934,-6.8056639825380785;-1.1432951559018483,-3.3152506709636143,-8.00782330264275;-23.309598954355284,17.70522928815154,-5.847499376863943;10.211848681964812,12.115748229316628,-5.090816695343618;-4.92064280288249,4.923937928677113,-10.89332124128963;-0.1000735948405467,-5.624458166735154,-4.02057196044079;
32.27494561744156,-60.813662461124515,-4.455636255295126;30.806097538510155,2.541619535990144,-11.884931592672146;-8.485972988980508,7.971632753053214,-16.041951821498852;10.765362723063408,-6.8027450727851875,15.67206374527949;3.9830286954314653,4.270810729767921,-13.107869299751787;-2.936044595077223,0.8232356103330425,-12.381971006148717;-1.9186104641215624,2.9831331836627455,1.5570743603588422;-0.5022230926606878,9.556508962075076,-18.230297126329496;-1.30343620195495,0.5003814556729591,-7.385651941576101;-5.296593893200757,0.07222445633053444,-3.042228049818381;-5.114063494567814,16.43480878542145,-16.46886408368687;-3.9914580927282253,0.35184671913263926,-6.902861288300272;-1.1895134004190686,-3.308155898111156,-8.620778223765313;-23.309600830078125,17.705230712890625,-5.847499847412109;10.302184938578325,11.371554769242595,-3.5923879959815865;-4.960907167499982,4.931983097340329,-11.807445333296155;-0.1959192978441456,-5.601484783525551,-6.182644349469273;
32.1557034898871,-60.79671826824625,-4.129620004195866;31.104632728810437,4.95305239188717,-10.657387701275178;-8.80535899942984,8.053351651648159,-11.224747697239843;10.95150174544067,-6.744863694799817,18.008650138411586;3.914786054522197,4.746565834753119,-10.083668224308747;-2.9382787978595353,0.8237636735869398,-11.249953570018517;-1.9193340954605962,2.9834157920897133,1.5911643214705542;-0.514719983158652,9.863238283891237,-13.191507915262886;-1.3049307790616886,0.500547426669623,-8.107944723737356;-5.324179363710694,0.07410969213073457,-3.3263526803220884;-5.175806446469231,16.103591313669433,-12.02213090739562;-3.9954407265881144,0.35196924998732737,-7.079595768548811;-1.1245211805420587,-3.3177248259053025,-7.759707286375137;-23.309600830078125,17.705230712890625,-5.847499847412109;10.535401753609777,11.495970578471328,1.3288517452370878;-4.990077049462587,4.938637297523564,-12.470657480170654;-0.2403928409724832,-5.594726401474739,-7.173868229150699;
32.35579852722794,-60.82074277031439,-4.6738282212138555;31.150847731577308,5.188470017041804,-10.539895344730633;-8.793664084282865,8.049092253927151,-11.40118125159952;10.8326183667138,-6.774973798908186,16.539125139963247;3.928189654841296,4.866459619416531,-10.308496314936816;-2.936736051557633,0.8234687387143274,-12.024767598455977;-1.933842569153067,2.983313730646298,2.2777363125182872;-0.5149399550892105,9.8499828227568,-13.147712745174772;-1.3047414915397721,0.5005186303917177,-8.014417242235826;-5.365816651758424,0.0764147762067099,-3.7547191279348673;-5.153695374578626,16.527414072711085,-11.130904834378159;-3.9960592632711074,0.3520448331896096,-7.10867929333221;-1.0855181859077287,-3.323415418042276,-7.243524593939358;-23.309600830078125,17.705230712890625,-5.847499847412109;10.781048432286555,11.674830979090816,6.679657686899452;-5.036078529691083,4.951766912016609,-13.53375358436256;-0.0764123218309162,-5.622080478994045,-3.5115790052902267;
32.9398340112404,-60.884076101638456,-6.255132061119332;31.11657789483063,4.760031444194204,-10.76181078452093;-8.55650372250365,7.99798335450371,-14.947009564794064;10.601198014471805,-6.8445676054646345,13.641933530715917;3.939846453720448,3.862617026409336,-12.39293905470013;-2.937300134499608,0.823576160394014,-11.741742750501695;-1.9228801048397248,2.9836168166691235,1.7591271601044554;-0.5219590661062037,9.481844599421745,-15.011619665438701;-1.3029556709036452,0.5002843746953626,-7.150035628496117;-5.45972056181121,0.08486434405544951,-4.723302914184724;-5.0983362988220176,17.22294948442671,-11.825406221826464;-4.002804187906781,0.3528796120566619,-7.41421972128329;-1.127169784388647,-3.3180428743894743,-7.7936797809200815;-23.309600830078125,17.705230712890625,-5.847499847412109;10.791850838835412,12.32892846515801,7.295494308939561;-5.071572965841597,4.958689747808214,-14.337237827438575;-0.21431392392788448,-5.616357949419611,-6.530005781645328;
33.26891823477684,-60.94914819711605,-7.171127158728859;31.008845434344085,3.6722838941877614,-11.321763434311569;-8.5416676354631,7.9803992751749115,-15.223967598208317;10.369289569759243,-6.860841337477459,10.87279314187724;3.9684724525902104,3.3499037777073792,-14.258017200620012;-2.9384320786592717,0.823825886655154,-11.160419875963742;-1.9184369481799999,2.9829431683570293,1.5504526188590693;-0.5049374157191352,9.653382994897058,-16.760312040088788;-1.3011539989027594,0.5000598244203901,-6.270792602727771;-5.340773158424693,0.07526859643643966,-3.4970464610985488;-5.032139525495031,17.82646828075684,-14.84878271011418;-3.9967068962170242,0.3520179149004604,-7.135497094989312;-1.0991615440324973,-3.321764739458453,-7.423205284537944;-23.309600830078125,17.705230712890625,-5.847499847412109;10.6969984337844,12.628810646264284,5.516429202152624;-4.92590601693547,4.923181007028111,-11.005017374585076;-0.17821561503694397,-5.619935991022676,-5.734766755720074;
33.00201545539609,-60.88955641587585,-6.422678627098776;31.112941203828615,4.7854434250791416,-10.747746158715728;-8.575625757254144,8.0016664987186,-14.661868176193346;10.617900105170593,-6.8399317368051396,13.850654157682;3.932303272019213,3.8698624714117122,-12.140125599363014;-2.9377228057233293,0.823676402327394,-11.52258779379191;-1.9266540991075336,2.9833921792991345,1.9380493182808591;-0.5263385076829104,9.375567162649896,-15.105570898262615;-1.302899891225125,0.500263308957957,-7.120322822505136;-5.465914591242082,0.08651444216066373,-4.7881864366140094;-5.0962195441674485,17.252350847794816,-11.93648879621091;-3.9983159639051613,0.3521946020208963,-7.206327307638907;-1.1254868153895665,-3.3181982727627926,-7.771215870663656;-23.309600830078125,17.705230712890625,-5.847499847412109;10.850266531873485,11.776119382449837,8.213315809842937;-5.157248046740231,4.980690532265093,-16.3010389659195;-0.19921128529681148,-5.6193243247705755,-6.19288889414715;
33.69945113911835,-60.99630051273114,-8.33602932749297;31.05702396316925,4.118257707306462,-11.092837204294868;-8.334276344171297,7.930045799455789,-18.340078745679765;10.141545369480905,-6.912667647528232,8.062269181629516;4.005636601717679,3.279376216237916,-15.547962247827474;-2.938416607889623,0.8238183409525969,-11.176707958221707;-1.8960497086174808,2.9844161059053254,0.4895418741942988;-0.5147691267879843,9.245956539921707,-18.403040178566055;-1.301416641986742,0.5000869156315554,-6.40729831045698;-5.5948040338928156,0.09682866318875848,-6.1166722136440494;-4.97914650164548,18.547186186001817,-14.989013078004348;-3.994579640669549,0.35185049108013583,-7.044683545595396;-1.1800288234067235,-3.310423831135098,-8.493657243385448;-23.309600830078125,17.705230712890625,-5.847499847412109;10.743275852628743,13.541233841506457,6.977821275332838;-5.027845271936639,4.947058644270647,-13.3330800890916;-0.2569330989502511,-5.613477387088347,-7.46102123927228;
32.74791259098545,-60.86677977260251,-5.738673116332755;31.151950524942045,5.194831551061215,-10.536692022757967;-8.623964152752212,8.006530317974182,-13.96038595161507;10.531792646123348,-6.8360407219366754,12.846852116050409;3.9390624698158136,4.058057099802826,-12.035557618696734;-2.937260243579297,0.8235706197275121,-11.75905476018887;-1.923919549774239,2.9835151519933163,1.808454681076444;-0.5282608015850931,9.430436345893696,-14.261959856367184;-1.303681539195787,0.500377015490711,-7.500604303359195;-5.3936559607947245,0.07867206943057463,-4.041508703289591;-5.136914829349842,16.692553282894785,-11.7062577291004;-4.00175990329092,0.35274163470334347,-7.367006039142867;-1.10669527919468,-3.3206821948931307,-7.523183172619501;-23.309600830078125,17.705230712890625,-5.847499847412109;10.796244005252788,12.491918248207465,7.504744061361312;-5.01435097223338,4.945826893399702,-13.035032301011666;-0.17361047870977137,-5.616683268331276,-5.641607390310044;
33.02087912030782,-60.937238964002624,-6.512159723277146;31.00855737840919,4.18076722159891,-11.050124509462737;-8.662717554975613,8.017317871038818,-13.374660054213134;10.714751378368703,-6.815283603568592,15.04789102611974;3.963326600838491,4.284393553339387,-12.447251241166445;-2.935805769722393,0.8232238735766935,-12.504866144548327;-1.9524063279806527,2.9820481753600494,3.158056851300746;-0.4705321054310044,10.289239338606832,-17.85378004718529;-1.302977234651864,0.5002903053955172,-7.1627702648142435;-5.276275234185824,0.07086576347164222,-2.8334931486640733;-5.0300419587065095,17.69627518006586,-15.836182091563474;-3.99778587362448,0.3525074698932297,-7.19009033316083;-1.1137288061535173,-3.3199401355090066,-7.615317728267276;-23.309595180296817,17.705226421497418,-5.847498430094916;10.310120915655066,12.321716215733987,-2.9188207334821756;-4.848938742175045,4.909661105816119,-9.267166943068087;-0.022456171626343786,-5.630131382727009,-2.320013514621183;
33.863549757527466,-61.07692532589935,-8.836852378922822;30.906691466622533,2.8869769915859806,-11.720375706045697;-8.60689915242047,8.005922151566926,-14.208424406244276;10.569653566471922,-6.857644636487171,13.235944103923794;4.076206012213514,4.013587509709054,-16.654802333204728;-2.929944188684695,0.8213010416536373,-15.575044918557737;-1.954141580959141,2.981330011837891,3.2425487787753644;-0.42493683192186565,11.00747746731655,-20.258288225103538;-1.3056775070996771,0.5006466185572206,-8.463071414136493;-5.231175595276853,0.06897009047515217,-2.3699328416170173;-4.961513650745799,18.461380476577343,-17.84218026049466;-4.028863922588044,0.3576901870578634,-8.605360493643158;-1.1671546126006491,-3.311922740228067,-8.323703019990107;-23.30959086343004,17.705223142543215,-5.847497347155778;10.224350349973268,12.057468560019013,-4.920190987554155;-4.821584634168349,4.906114091495686,-8.66684770422239;-0.048695046991095295,-5.630440623968663,-2.8935010625913056;
32.954964896975945,-60.88626373946262,-6.296827664057522;31.106989962942233,4.8082341309326795,-10.734529186719184;-8.549080555324126,7.993830783075579,-15.069672367005824;10.414139229009946,-6.873204335571552,11.367404665834712;3.936565088600781,3.9953428340447985,-12.09260629631414;-2.9379520993788115,0.8237174377349871,-11.404293432814569;-1.9264444219473569,2.983334143025887,1.9283318014872586;-0.508182138534924,9.775256692698756,-15.061150107344341;-1.3028791745048411,0.5002573412058737,-7.098380055995057;-5.37914438679194,0.0774312513064527,-3.8915637997272454;-5.120016687690603,16.889114519449027,-12.227995963140385;-4.004946154042672,0.353060096584828,-7.505737978538487;-1.1067403449872313,-3.3209150534888487,-7.522805936596017;-23.309600830078125,17.705230712890625,-5.847499847412109;10.84688388847418,11.909307021771587,8.209137919387683;-5.094339414399356,4.96506509718843,-14.860374024442507;-0.14363900707194568,-5.624833756564757,-4.971565388092264;
33.02838708585191,-60.894592721952385,-6.49606208952828;31.16878474945118,5.4059160932238814,-10.42735950081691;-8.516176415951865,7.986608817026961,-15.561418058730982;10.3622545010204,-6.888206221926159,10.721009572363602;3.921328705200095,3.3228016192961496,-12.745177058948519;-2.9388657862508114,0.8238795996769214,-10.946435879190146;-1.9216126174203976,2.983508801872818,1.6989230315695958;-0.530312762448281,9.236313462937243,-15.542611412314473;-1.3026843381312807,0.5002417537811025,-7.0147219281261215;-5.377082942327092,0.07744171445810691,-3.8707537523759377;-5.133927832825023,16.737122095169045,-11.808323301659726;-4.0134946899751665,0.3543855244169238,-7.899624840379649;-1.104128845179934,-3.3210991488092314,-7.489204587108763;-23.309600830078125,17.705230712890625,-5.847499847412109;10.98477685031476,12.388581033547636,11.487950024755772;-5.074450359873175,4.95921003929792,-14.40295744080264;-0.17610590117662156,-5.6225884957351075,-5.683208050955855;
32.22935730574237,-60.799008178478694,-4.325310186113244;31.149328462089567,5.308981436760908,-10.475558515569494;-8.88835982966321,8.072360296579143,-9.978534492282202;10.928511429947276,-6.746198606441768,17.739368664391616;3.950086687168724,4.829038176268747,-11.080530067810377;-2.937374172424233,0.8235984660285744,-11.69204433246929;-1.9191036294713892,2.9839120191204787,1.580219699480401;-0.5002277098950192,10.117396333091978,-13.628391413998932;-1.304470833987062,0.5004634955041476,-7.8850116707215445;-5.3303554073558574,0.07393669785094185,-3.389534088901302;-5.1262058408018305,16.763869034467035,-12.384316293149904;-4.000213910280815,0.3524970326406133,-7.294725814304186;-1.0857801808729002,-3.323515076599254,-7.246451555933241;-23.309600830078125,17.705230712890625,-5.847499847412109;10.61921585421822,12.868221465278245,4.021397619410675;-4.9337532163110565,4.92615631641758,-11.18979546200686;-0.15306431932042022,-5.614971706841794,-5.200631181513146;
32.50255862981691,-60.83009240999949,-5.066039747791293;31.16001445379658,5.321924374816282,-10.470554740985476;-8.787230276405339,8.050691760839866,-11.48963362907149;10.847741162470637,-6.772077723738683,16.722825188675788;3.934133927794405,4.370087701036112,-11.366016336419866;-2.937427332210977,0.8236054195967123,-11.675258714466695;-1.9185760407184034,2.983987003054905,1.5554844269625174;-0.5071997517074572,9.903287305655969,-14.146858459052696;-1.3038198623152124,0.5003895937986281,-7.567185287302861;-5.376520495423888,0.07729200683206854,-3.865039163084964;-5.108522940724394,17.048024099947714,-12.121766765895021;-4.004085981925504,0.35309669715708064,-7.470890870212281;-1.1080571007307232,-3.3205744622428943,-7.540992585401564;-23.309600830078125,17.705230712890625,-5.847499847412109;10.667945471864385,12.680529859179284,4.85880544948285;-4.961736367165726,4.932022966859166,-11.823867518818181;-0.2039784695090431,-5.612060949236737,-6.315452132617525;
33.138072061214245,-60.913890232618336,-6.798257266134371;31.057138630250684,4.114244176573097,-11.095016939190288;-8.477732871187031,7.978648512606578,-16.131266001186198;10.665015325447984,-6.828540764344276,14.430995622188343;3.9891973859741987,3.667939041027378,-14.338674166971986;-2.937912364681135,0.8237210130899868,-11.431968043974868;-1.9136020783683934,2.98395554834564,1.3197679846791301;-0.5125870705755037,9.416587652747992,-17.34652178815949;-1.3015560506937345,0.5000969734049449,-6.463780877604107;-5.604486774273992,0.09865391561171857,-6.217295818989344;-5.040612846492906,17.866483083915938,-13.428786529516278;-3.993672230194514,0.3515986126624896,-6.99809134270979;-1.1717754811080987,-3.311777497406481,-8.383683974664342;-23.309600830078125,17.705230712890625,-5.847499847412109;10.706065203643615,11.795836049849417,5.0918873691545405;-5.124724033841927,4.9742627072979575,-15.564287750901775;-0.21752688375896012,-5.618670552545068,-6.592143469318365;
33.80264168725075,-61.0258688905029,-8.632225184151997;31.04042871378007,3.9730948114367766,-11.16713563181911;-8.389637987546042,7.95033968214795,-17.481038457917787;10.36510560819232,-6.887161409122675,10.758305029131838;4.005372248481885,3.275973874974202,-15.545367061243466;-2.9376250007708493,0.8236413075783297,-11.578884930298864;-1.883053878831612,2.9839885209942,-0.12625838365722178;-0.5117515466651307,9.295996383283269,-18.545152319123698;-1.3025129996107232,0.5002386123028978,-6.934174175232845;-5.606016221618918,0.09820168812311907,-6.232616068808909;-5.025663881358183,17.95376523817566,-14.415137362658655;-4.010280275167176,0.35450679215156156,-7.759513582813492;-1.200833061300682,-3.30654937834622,-8.77100379804357;-23.309600508038756,17.705230468282245,-5.847499766624225;10.696830051096283,12.457653356514657,5.361618593116629;-5.061065608829296,4.955009440058755,-14.091608548600773;-0.20025674678657918,-5.6193347322985465,-6.215438636326146;
33.36943833585683,-60.939379272643166,-7.425027286106657;31.10150033418169,4.5803457917507275,-10.854759227688655;-8.411741961576961,7.960497099273518,-17.129850387285952;10.582749747010398,-6.854586450580198,13.396500602109068;3.985344930122506,3.5622922833420883,-14.392997456370113;-2.937837275204658,0.8237035559422388,-11.46700375991968;-1.9152198309255262,2.9839233371100145,1.3958636924269037;-0.520754643807644,9.221667400236301,-17.484788811412;-1.3019785085269346,0.5001523395682571,-6.67408493145639;-5.638547492104854,0.1022843897675818,-6.569469767416165;-5.029288742210219,18.0525217653207,-13.20272137034444;-3.9937963280446835,0.35175262736135066,-7.008635042439043;-1.1660625668234244,-3.312567130289874,-8.308630114138076;-23.309600830078125,17.705230712890625,-5.847499847412109;10.751401749157953,12.171285977350635,6.2461503675979495;-5.166977273062083,4.981662928329721,-16.516459547487973;-0.21258443083328318,-5.619306079363292,-6.483271866574353;
33.69086651408278,-60.9911774790378,-8.309125306577817;31.011602326776888,3.663828833927869,-11.326590273448607;-8.301021482663446,7.920864811443027,-18.84368736046924;10.189989129133577,-6.909976226843455,8.640745240184446;3.9724983837767596,3.1259872768994206,-14.73961288865173;-2.9362208545173227,0.8233414762453195,-12.290800842325597;-1.908765212071799,2.9838114425900515,1.0916592609952533;-0.5117439207384629,9.335040080549286,-18.198840030498413;-1.3018972140110907,0.5001688724731227,-6.633704812799836;-5.63702980476945,0.10068034417586984,-6.55234238353939;-5.00305491282762,18.233877065252482,-14.744540544915939;-3.997627295898347,0.35234021579582747,-7.182266602488289;-1.195945466255509,-3.3078996512488623,-8.704883142905468;-23.309600830078125,17.705230712890625,-5.847499847412109;10.808524301418487,13.120256660819331,8.024005825430638;-5.018134667995151,4.9440655758800185,-13.107191968649346;-0.24079760165481148,-5.615591385086705,-7.105119179029022;
33.355100868691736,-60.943885105530754,-7.391430400297397;31.059836087201404,4.2464999178067355,-11.025088523236382;-8.390032832042946,7.948780485095372,-17.48252579676854;10.312985954611149,-6.896595229874584,10.122195597506902;3.9451874894799173,3.242069070367282,-13.647566107453782;-2.936385781712278,0.8233650515509312,-12.204791344240022;-1.9175274332464192,2.983449895871441,1.5066180609574036;-0.5118615679644012,9.481103409073004,-16.9201005267182;-1.3028222823940878,0.5002866656589928,-7.083088858711619;-5.53923121740672,0.09234404728887326,-5.5438623929828665;-5.073371097852198,17.396340929393585,-13.323779217813364;-4.0048679336759365,0.3532502986674591,-7.5076761749731675;-1.1600753711999394,-3.3129299531623353,-8.230067260328644;-23.309600830078125,17.705230712890625,-5.847499847412109;10.887597455215229,12.848890222037527,9.615090304720121;-5.0250915996746714,4.945691448461894,-13.265097209703157;-0.19459763975958327,-5.620932172134649,-6.088700321150102;
42.371742849214414,-65.63424726396866,-36.32577931604477;29.485670226034213,-6.9709120705087315,-16.681647142100367;-6.886844198601486,7.065969198575565,-43.06091316858823;7.071178649905605,-6.228591997362936,-30.64075985352221;5.396537203347052,9.941829256082466,-57.57386025948426;-2.8472965931886023,0.6986599694855021,-95.82112132198696;-1.0445488561382792,2.5976508161938443,-45.69137413220575;-0.20493843957378516,11.731384766634239,-66.86971771317154;-1.4047792873314893,0.6411835081265533,-100.94457208218971;-9.240539359014411,2.1268022933343342,-50.432228722095765;-4.806958509255745,16.061186092505853,-66.47354326243148;-5.098542863854815,1.7707802104255899,-96.72682870700623;-3.888147023224577,-1.7422870482061037,-50.63654101857576;-23.309596376865308,17.705227330373646,-5.847498730268703;10.170672668500172,4.417510298620555,-8.854781263801334;-4.986852151753724,4.942835013581954,-12.42628503592608;-0.07009838378188128,-5.624880444671807,-3.371711453379203;
42.014579764940436,-65.16208436579585,-34.705986824891305;29.80971687391737,-5.364784659803264,-15.901307243885146;-6.722543653773326,6.903513413226536,-46.413317001807854;6.664599940924366,-5.980696823225658,-36.33506884013307;5.32455385946158,8.760440757188459,-56.41231684398059;-2.8488874277886445,0.6845742426598728,-102.879288107247;-0.9034202967651817,2.441453902221643,-55.73693901069108;-0.30442504065813175,9.533650342100355,-67.50104656433096;-1.4037501481477777,0.6470772297208044,-103.81874816424728;-9.464652366352277,2.3714754957701003,-53.846351540869804;-4.899714384671914,14.811510980147341,-65.0294914187709;-5.098622176890818,1.7964122156295146,-97.86468365412723;-4.061330559510916,-1.533691997743066,-54.215922553356414;-23.309599971110526,17.705230060447192,-5.847499631929388;10.13141121112294,4.6524226963174495,-9.659479340788893;-4.842771756851648,4.911112166753237,-9.14166841987579;0.021908828493413517,-5.629332411888686,-1.3528578272731622;
40.906815171074825,-64.25339350572717,-30.668851815106702;30.000442702063953,-4.255023344221902,-15.35080675599232;-6.873400867089286,7.054228597920695,-43.31923516490041;5.962195531655652,-5.448357338923363,-46.85390643186953;5.198104910150593,6.3909976724826025,-55.71646077327351;-2.8507066068651943,0.6748423126419778,-107.79819207653873;-0.7936936518925711,2.2869212028884824,-64.78424617685404;-0.2818373035127964,10.006331928747413,-67.83374116470769;-1.4035496122809878,0.6485247800986274,-104.52082040809321;-9.530150495283335,2.442993823421743,-54.840348672757564;-4.851549738152143,15.46051596004926,-65.81547504628767;-5.0973184574627695,1.8263379738606402,-99.20583362982332;-4.024704758603359,-1.596920644639317,-53.25106903113897;-23.309600830078125,17.705230712890625,-5.847499847412109;10.080549428555601,5.739465118320739,-10.624432553412728;-4.657732260815422,4.8848569674236755,-4.990379371037419;0.09638911093273536,-5.635669376279492,0.28203273822855934;
41.09100090717907,-64.3830189910993,-31.304869169895973;30.004195461729886,-4.225017244541697,-15.335486484832456;-6.884021111486694,7.064698346308177,-43.10286688601182;5.960978399325962,-5.4478289911603905,-46.86830739130735;5.242669459530199,6.808893679816492,-56.98868843462511;-2.850872027423816,0.6743333406036414,-108.06173670647378;-0.793606185161672,2.290842020492821,-64.62045067784274;-0.30357933689338507,9.505099257900484,-68.3784741561628;-1.4029103047435894,0.6509491815752817,-105.7260952456146;-9.496322608873754,2.3963470107349734,-54.24625286122172;-4.874109047809485,15.139147968252187,-65.63481531257248;-5.091087744506504,1.859148177089938,-100.7007819081202;-4.08437137680245,-1.5260214985941267,-54.46908051790268;-23.309600830078125,17.705230712890625,-5.847499847412109;9.99997514338038,6.157455912182864,-12.317335995553739;-4.670721095962236,4.885250831575012,-5.2783112234998395;0.08851697663198488,-5.6348541701503745,0.10992581452831139;
41.2134256949672,-64.57606403809683,-31.904213233005514;29.873124812913638,-5.0763496206570595,-15.76253230995837;-7.129713135732652,7.269404105019915,-38.45462450626406;5.9306962381834865,-5.373384482293157,-47.753151236676956;5.299272110970548,8.440730827418173,-56.20185890449799;-2.8506420256329656,0.6751316126191059,-107.64827411853533;-0.7893378566548286,2.254991691440612,-66.2285184970864;-0.24157625456047757,10.97956646532875,-66.49977972354971;-1.402803195764826,0.6512201063302336,-105.86436714066606;-9.508806134720619,2.4669035145346183,-54.909742801475495;-4.835406152747512,15.71260007472996,-65.8825856829085;-5.080792506511985,1.9067694061378526,-102.88475313671827;-3.923012163951315,-1.6977131635407068,-51.375646055438594;-23.309596027058173,17.705227064673654,-5.847498642514945;9.991803266118982,7.748105195036613,-12.007178587887433;-4.752405807508013,4.898615284898197,-7.116661129102066;0.05703766320110532,-5.6329846818660645,-0.5793309753876625;
41.10303707655367,-64.47798737132035,-31.48962552424408;29.900826250944174,-4.912141366475682,-15.68089482314839;-7.153519086915321,7.288597137197448,-38.0107569689705;5.997070270794558,-5.45070678894606,-46.546440978501934;5.277671351763492,7.89752853670611,-56.48055128367199;-2.8505686578362437,0.6753444898727871,-107.53836315951445;-0.7945405476468688,2.2694460136927885,-65.50152913113565;-0.24121629298026243,10.96013455219065,-67.07607961475107;-1.4030185471589536,0.6504640510521015,-105.48797208750064;-9.51712914892362,2.48264786871609,-55.09287378607301;-4.850124772060774,15.486466394682328,-65.96236364811857;-5.0823250294468485,1.8998066822999693,-102.56562624350845;-3.959550209995009,-1.6350130085031884,-52.32931687215114;-23.309597386730903,17.705228097437246,-5.847498983605637;10.032192203293848,7.350219206200537,-11.275208641094464;-4.805713601835878,4.9099772110160655,-8.327064311834175;0.004128039117648383,-5.631500934041659,-1.736756546731707;
41.41899034980762,-64.7001465223267,-32.5794535178062;29.89784157715033,-4.930747343774314,-15.69019010690864;-7.169933812776418,7.302588672786738,-37.69780654351228;5.965647397881942,-5.419324411910765,-47.072035888807775;5.267425023381816,7.830828656566244,-56.06543619312612;-2.850528203485106,0.675455901457896,-107.480613628655;-0.7844171256810021,2.248189995363815,-66.6155289889386;-0.2612955405272917,10.521397535263452,-67.11174245732025;-1.4032473450220997,0.6496720698521733,-105.09243500913293;-9.652482082501868,2.6699096099697526,-57.48205222653224;-4.885039865071837,14.974086658508602,-65.97060299587989;-5.083377317162784,1.8950129014266062,-102.34617439835039;-4.066338159476422,-1.4833199719113372,-54.77511646622791;-23.309597386730903,17.70522809743725,-5.847498983605637;10.061402847590978,7.168270868710866,-10.709967445186802;-4.87337530285094,4.921552633617052,-9.852461969323855;-0.017018288003943647,-5.629913569810798,-2.2000956138823313;
39.51807937671343,-63.299199859736625,-25.90148549860134;29.738368712468024,-5.501701887058583,-15.956357775375539;-7.308005983673498,7.367885659209411,-35.48111666936688;6.716941457276148,-5.835345566719055,-36.2756673761615;5.236882919364132,4.570616498073872,-63.50028550487945;-2.8490013391159885,0.6841676594058138,-103.06326742158636;-0.9300386607333104,2.4696014995649627,-53.773264172846005;-0.24555724791794242,10.595056875659056,-72.54446570156374;-1.4043232499121352,0.6398767500319419,-100.28673067987663;-8.949532016808847,1.8472189095173897,-46.196636241379515;-4.81361449483636,15.742155247789427,-70.93373841436203;-5.091156049447689,1.7414311030540883,-95.32550034080553;-3.5419499479705645,-2.064630267979393,-44.389960412040146;-23.309600830078125,17.705230712890625,-5.847499847412109;10.166799953731644,5.168553059597367,-9.043270086971956;-4.81742922395568,4.912702302465128,-8.589090373651198;0.01460296920174274,-5.619127108514399,-1.5333810057492427;
39.259494230737864,-63.38619371319981,-25.391542197471235;30.28172029967886,-1.1430629267968493,-13.741524693379871;-7.502376497276989,7.403299119020133,-32.58145485819795;7.325339622350492,-6.086161036409885,-28.15477271900926;4.807872432376222,6.416852306721019,-41.6647873804426;-2.88465494562483,0.7406463717213619,-66.51815933774984;-1.28542336470205,2.6377478533032623,-34.54644039438924;-0.2471495499887705,11.06077091193105,-63.26695913543598;-1.4032846417970473,0.6351156190001449,-97.89450836152812;-9.124342414693258,2.149748404390584,-49.74691916600143;-4.775571166886172,16.621590980547406,-65.60607655064165;-5.067355934531448,1.7856301995647497,-97.34919260367056;-3.777724062568405,-1.7409226634888693,-49.77794890289586;-23.309600058777736,17.705230127046065,-5.847499653920418;9.161527490810212,4.857317503323586,-34.59696216579102;-5.930304387090936,6.469038242614246,-56.64517886071719;-0.8660719212950416,-5.156131394187832,-24.303110270510864;
40.44310660629462,-63.922098410241404,-29.05876107025552;29.57308241855663,-6.779040625190622,-16.604818508721486;-6.999992376970503,7.139553840581344,-41.10907974451989;6.017071852870407,-5.499493609807963,-45.96684519611819;5.19286641484556,5.787136679137514,-57.22411591557435;-2.8500201116164723,0.6772379963687489,-106.55806841221964;-0.7962456027695418,2.287112324832509,-64.7194423333965;-0.27085548763426226,10.319745873705271,-67.09208092814833;-1.4042458673430462,0.6448023068025458,-102.69377198153008;-9.454056490161602,2.373989763668195,-53.796856689189994;-4.871473614534778,15.285066186893074,-64.62242225240254;-5.098352537347031,1.7713490400370813,-96.72373087708628;-3.902885004590096,-1.713055309631823,-51.055573776400806;-23.30959902993462,17.705229345559232,-5.847499395823945;10.0543449403599,5.959715717536904,-11.202072574152599;-4.700431596484743,4.899244244503284,-5.972940093233701;0.04052012725728823,-5.633982336890775,-0.9399377719493137;
31.059280124155915,-60.7762049757507,-1.2222025062878108;30.203772703455304,-2.4920340769801856,-14.44741547319921;-8.582383391311184,8.00489006481163,-14.556913572016404;9.614444996187157,-6.938442056595205,1.7230813484107241;3.710320937543628,3.9009778392743004,-5.012801806478763;-2.9288708496279687,0.8211870657929751,-16.087511775882266;-1.667845289732815,2.9565787726986517,-10.421169487885576;-0.569953602010406,9.112606580181435,-9.251232389407972;-1.3085314100082779,0.501578434898201,-9.912193832631312;-5.810899601105584,0.14216780516677718,-8.383725978534208;-5.23145332364834,15.831709490082346,-7.790798866749969;-4.123622445541293,0.3774000846372619,-12.963519889124077;-1.2876069914910582,-3.2803674382175987,-9.95354008525853;-23.309600928105276,17.705230787360225,-5.8474998720018245;10.78825001828136,13.055438689826056,7.780782919857545;-5.327577600799704,5.086914385277952,-20.62048405296202;-0.37091987253266795,-5.572407547593295,-10.081641068056626;
33.52307782101001,-61.00436345087543,-7.884207786419915;30.54619297646309,0.05558373296168151,-13.156987746488761;-8.800120928825992,8.039707527475622,-11.33095294597911;9.92517876792486,-6.883903869570785,5.4466805366753634;3.775636048770894,3.835047166686539,-7.18975339939822;-2.9340951233517316,0.8223883310886398,-13.41638201038799;-1.6757177875338607,2.957806731313289,-10.061943225323859;-0.543284575905288,9.57162446804482,-10.252079663672466;-1.303254441709017,0.5004992788790265,-7.299307444054143;-5.679882008712225,0.11094896095218172,-7.001858626553026;-5.163359658664066,16.93691654362357,-6.865018748438352;-4.067061462610988,0.3639929498905297,-10.339065644058804;-1.331204724884077,-3.2834854537127893,-10.50558943187402;-23.309591056558197,17.70522328925093,-5.847497395602407;10.546639161768862,13.05460215262718,2.5957614687881505;-4.936061600645014,4.933722505799109,-11.27649797774711;-0.010430858964838514,-5.628057395224274,-2.063011225294816;
30.8696250264942,-60.923320629936256,-0.7722262439077695;30.65211697162051,1.1076111180116992,-12.616262766633275;-8.542758950871498,7.972155515116667,-15.227522101934195;10.076069146980538,-6.906647294969006,7.294825490582769;3.7510389633585994,2.655377795362218,-8.520818965041638;-2.937557997717857,0.8235162566329565,-11.613004540006264;-1.7062810327717897,2.9680597354440907,-8.536079212713748;-0.5868840809022883,8.229464639000597,-13.523682673111622;-1.300063424482007,0.5000367152752455,-5.7437282053876055;-5.507101731428321,0.08990721307091928,-5.212355993830067;-5.174408705538489,16.260338177563796,-10.893039697449568;-4.015790021519398,0.35703316610712227,-8.009529139876928;-1.2662043687005051,-3.294167162999856,-9.641916317250745;-23.30959737843302,17.705228091142523,-5.847498981522866;10.490040074825233,13.091992899337388,1.426565056704007;-4.974964127575545,4.943969515322128,-12.173309858647233;-0.16645399023101834,-5.613080620515741,-5.499734786496767;
32.86293057449418,-60.90540061765897,-6.0709409532392185;30.851938845112066,2.3723887130343284,-11.984531433500523;-8.441389099540512,7.968042380345257,-16.683934632415664;10.535717700310075,-6.862256610796002,12.8283607196273;3.8618640844351675,2.706738912033818,-11.93834479633704;-2.9366619799970457,0.8234301937365653,-12.066103129439714;-1.9094598799900386,2.983286774695197,1.123934115882358;-0.5234829878876439,9.334586869324644,-16.0293010348343;-1.3002441239960827,0.49997577597198806,-5.831549758954959;-5.218210377203984,0.06894716242961484,-2.2369627654254782;-5.047196371257501,17.660033731782846,-14.34286173852706;-3.979321599731916,0.35007197342193874,-6.353770638105543;-1.0508068719415042,-3.327661490392076,-6.785288727392493;-23.309600830078125,17.705230712890625,-5.847499847412109;10.575750168810506,12.936477157971,3.1873502024972176;-4.748514143879473,4.895908875576509,-7.0214416999111;-0.08833396913054296,-5.627456832246443,-3.761147554551404;
34.151896324584,-61.12771418590973,-9.632007130753811;31.182464570678068,5.611201108561033,-10.320610987292907;-8.660199848283025,8.02511803058693,-13.383997280047522;10.640343052166616,-6.835857773113914,14.120620824954008;3.9380694772324722,2.5189246111843753,-14.713342902463925;-2.9379390123985023,0.8237310184154927,-11.41280722737807;-1.9038461830046691,2.9824745268515938,0.8592971768396175;-0.5249715490522211,9.048702109161946,-18.166236772817875;-1.3012053462240363,0.5001084909913514,-6.302248597825381;-5.247472946408747,0.0696913879994369,-2.537450711586142;-5.077129233554024,17.2623817161573,-14.181761273484543;-4.039542669354602,0.3586545932045658,-9.08310992381492;-1.2274684442599744,-3.3007779887093425,-9.127421306066411;-23.30959326443792,17.705224966273704,-5.847497949477924;10.346112643749796,10.75858225593046,-3.0502914044658866;-4.8942880509123965,4.918311720692982,-10.29716590429023;0.04090656204840729,-5.633848033410705,-0.93160326030507;
34.22196830598205,-61.121817860223295,-9.811809730856556;31.110655945480396,4.76995078018883,-10.75553159806911;-8.719857705395354,8.040731232597512,-12.482849615879024;10.61719879018195,-6.836713648009982,13.850682598177924;3.8872229935314215,3.2698994808671147,-11.731005090087162;-2.9361658352061544,0.8233547230225566,-12.314235264162843;-1.959038726625187,2.980986761645061,3.473764240155681;-0.5107958447352048,9.700075607825996,-15.226262764623092;-1.3029698681979862,0.5003110921234066,-7.154936554972635;-5.275059982560565,0.07296965693683419,-2.8224044804043973;-5.043772863855358,17.807729899605793,-13.469451183961494;-4.025208943612397,0.356434130680916,-8.432806392908766;-1.1879675722781184,-3.307135390081156,-8.603357374095058;-23.30959285660152,17.7052246564942,-5.847497847167147;10.428034678115505,11.165750000255846,-0.9418584140648163;-4.824944579127231,4.905890173462,-8.733593697978964;-0.02283086886908568,-5.63227692366003,-2.3257065004213326;
32.10460316576629,-60.8337362565877,-4.022255170688048;30.885531613376788,2.6654138786704373,-11.834557053057296;-8.291892538499827,7.918141432320087,-18.981790820590426;10.413158547374294,-6.87880534864783,11.344693748406913;3.9901841548411636,4.058955201860662,-13.69972070732583;-2.9343511299929097,0.8228750972235268,-13.243218282508707;-1.9024607872861015,2.98398932706126,0.7926949690816809;-0.46085433239102286,10.196588099165126,-20.53746751816089;-1.3024018321664599,0.5002295541847012,-6.871730930679646;-5.382634831149866,0.0772571845956721,-3.9276018348483532;-5.001056743264493,17.77182713708558,-18.85428548174584;-3.9660991911283676,0.3486853904284211,-5.75576700778223;-1.1496889116336995,-3.3146327870432977,-8.092017550356315;-23.309600830078125,17.705230712890625,-5.847499847412109;10.356014025427317,12.83420842273757,-1.6436010533333172;-4.884313647968626,4.916864077296895,-10.072592770455618;-0.24104840888423887,-5.6087124626677385,-7.131296282474368;
32.617741928418546,-60.870877422704595,-5.4010006074525325;31.062088454018483,4.306372917304331,-10.993663363547004;-8.430120633660191,7.960096178710518,-16.874891135907177;10.57283964015796,-6.85215001192575,13.288700868035523;3.928899427394836,3.8894292517817903,-12.012525885825344;-2.9338649095963456,0.8227759442617251,-13.489485564109822;-1.9040832664367897,2.983269509633267,0.8696799569171892;-0.5003587359637245,9.687549089347163,-17.43870916991886;-1.302898562193883,0.5002922740008181,-7.116729239588567;-5.367992456783072,0.07661337666098912,-3.7770634169297366;-5.02982466333564,17.63679301679733,-16.692209299217648;-3.984664280089516,0.35093705619498383,-6.595452468812607;-1.1704018817047115,-3.311163179877833,-8.367309988171604;-23.309599078178845,17.705229382204028,-5.847499407926598;10.361821356169598,11.376167322794247,-2.429393624659521;-4.92516037827515,4.9285282853374515,-11.015066939421269;-0.21998806322823677,-5.599546290161649,-6.695958220374034;
34.08502894165349,-61.14820714342652,-9.476394237094524;31.109805531862655,4.791722097484053,-10.743760211767514;-8.632304551305264,8.013648185626417,-13.82048520845123;10.635901858338006,-6.840256588383261,14.056427432642794;4.014560794132355,3.522306569691793,-15.415670319667091;-2.9361677670460664,0.8233588044930877,-12.31345660714162;-1.954585659229264,2.980463949683006,3.2638597390039616;-0.4417397558273774,10.576134433739469,-20.776259571374933;-1.3052213021821815,0.5005867007435653,-8.244653154083688;-5.221959993616002,0.06855323946605486,-2.275036261098893;-4.99426788805465,18.03463875603798,-17.483787800976916;-4.027700826577305,0.35686524296828787,-8.543797488130528;-1.1610942081746967,-3.3126076845703816,-8.243808221577426;-23.309591505357115,17.70522363013079,-5.847497508191047;10.288983998698937,11.33814101742401,-3.993689479942806;-4.856825873975869,4.913980796427333,-9.462080954312757;0.020266449731516433,-5.632728396700449,-1.383848883663216;
32.626405117207504,-60.86817239350025,-5.4200902223285095;31.1707703691396,5.512516196266206,-10.371077808020162;-8.423844666925051,7.959616789044552,-16.964295627763995;10.38058223041772,-6.8793377839797945,10.962294038855577;3.9593738391458695,3.3717448177313623,-13.88459946285023;-2.9339651381478227,0.8227786139233081,-13.439184547883258;-1.9095054970420822,2.982531981350777,1.127116813228497;-0.5094293115754202,9.447100520726773,-17.647568756933286;-1.3023767981362504,0.5002541532153363,-6.866411260998106;-5.316803732617276,0.07453844028491184,-3.251016622618109;-5.040389762450528,17.564725825384155,-15.756586172325983;-4.000155418122762,0.35268654904566815,-7.293948446096726;-1.236591824600909,-3.3011283931257642,-9.24454375491903;-23.309600830078125,17.705230712890625,-5.847499847412109;10.516307209233014,11.505403237549112,0.9548878123931198;-4.90267855497143,4.9209298002407404,-10.490769429438789;-0.13619884463186535,-5.6162913443963784,-4.821845498918647;
