42.086325951838674,-65.19959180452696,-34.929308823308325;30.022924331128678,-4.1669674712851785,-15.309286303084463;-7.169404228884592,7.311524880832184,-37.625461022235086;6.324748207432363,-5.8049357662696295,-40.83217604414683;4.706315860030624,2.055292692900704,-43.173128601525534;-2.8507972285331107,0.6746062933163636,-107.92004305775481;-0.7236718650805024,2.1157470142485346,-73.5574162617903;-0.4049753115129081,7.641683015366195,-61.70447518382576;-1.4030109787839509,0.6506699870219974,-105.58153499572836;-10.209206637184666,3.736967690709655,-69.94516558351233;-4.863680500054474,14.908208502846175,-72.77705059259787;-5.105268670608833,1.7695555640628813,-96.63455583951817;-4.747299696026533,-0.13088470165367005,-74.88051581495266;-23.309600830078125,17.705230712890625,-5.847499847412109;8.006103567883752,1.3246117358780514,-70.2302822832837;-7.00989683342677,7.523036902492499,-91.31557868194422;-2.323005794986237,-4.053916166076421,-66.65693528229082;
40.85408668869539,-64.15210968562724,-30.382525783898828;29.989463819541836,-4.3788242286448895,-15.415357846483817;-7.4529533139967175,7.511793934192838,-32.58292141718386;6.487544741975057,-5.94025145540806,-38.32531129171723;4.768187567500449,3.815518731219532,-41.802382698459624;-2.8507013474738856,0.6748668312585555,-107.78250559904245;-0.7240463087574331,2.1167139916959044,-73.5067087217928;-0.36750082410624074,8.412410413440883,-62.621355548716316;-1.4036768864354343,0.6481683842019286,-104.34377202531334;-10.184449426271506,3.6682178508771015,-69.19435184100354;-4.802820581428041,15.730875691592171,-74.50423262208528;-5.109117489425785,1.7350284862506447,-95.0858600908235;-4.738776721908715,-0.1630363183470367,-74.44426053204384;-23.309600830078125,17.705230712890625,-5.847499847412109;7.997710844168346,2.3677698428808407,-71.20185503911023;-7.010657707021015,7.475615845289853,-90.26518743316515;-2.3210293377851294,-4.058355018951532,-66.55060378799989;
34.971023602252124,-61.266387511282964,-11.893878705473375;30.22691301211942,-2.8338973412623316,-14.640216756520786;-8.251257128129872,7.906960526794909,-19.595194448031677;7.136520247116311,-6.376118394684589,-29.05222916728274;4.303439145715033,4.943283841275179,-22.516759046406065;-2.845654303338494,0.7207941890753282,-84.76802671359987;-0.7663585266305618,2.236279844169215,-67.50850797651954;-0.48609495359028115,6.9362771121251505,-47.03827537287923;-1.4044198767010037,0.592559268912296,-77.36771744182207;-9.842274479340555,2.9281146317956273,-60.793433701566464;-5.0738526142483105,12.969349850078997,-53.7014940107307;-5.096668546681836,1.4161700666348045,-80.75002602341038;-4.545319394590688,-0.7098723589736138,-66.81576301764804;-23.309600830078125,17.705230712890625,-5.847499847412109;8.504321416125439,4.220027209136444,-49.871406808669505;-6.986983704099201,7.116700990069209,-82.2977412185165;-2.292239861753247,-4.122181857617768,-65.01959192870505;
26.672330794243003,-61.13334217431368,10.24177085878836;30.191757580593563,-3.060711441906097,-14.753915142313136;-9.08246890294714,8.106590379940183,-7.098097899166813;7.851149274083868,-6.698884710632049,-19.73074733203187;3.586259298302021,2.2576746165909576,-3.8254219697667615;-2.885064807923365,0.7966129733748356,-41.313261055309226;-1.0760239420048947,2.670299469913991,-42.060377686088856;-0.6556862314179854,6.5263761038917805,-15.055177658953149;-1.3181309729440387,0.5034519586869226,-14.603476114107487;-6.8883851458699175,0.40038803587098326,-19.824672215387704;-5.3527069976331045,14.323848573631961,-5.466362386504294;-4.17518436369333,0.3893906578905677,-15.343708073055936;-2.473266263453043,-2.901818158897151,-26.35274098020494;-23.309600830078125,17.705230712890625,-5.847499847412109;10.584130773471372,14.677437883980161,4.5111295195655075;-5.609991946181664,5.164911052439885,-27.186851034465093;-1.2809293928237742,-5.251888605046244,-31.37581040128473;
30.54659219096543,-60.7253048990786,0.15566234433204507;31.22962924660828,6.122088097302652,-10.05700791170736;-9.21328045005482,8.12071901855977,-5.175642087773436;10.209857577313677,-6.929645182661778,8.840705304075453;3.4593421329879055,3.7297753383917582,2.805325809551835;-2.9382323317593193,0.8238040785962939,-11.264067868316388;-1.5177599880957127,2.927236035677116,-17.68188645707391;-0.6984484748933903,6.682641796124106,-5.782373688464439;-1.2931549671610558,0.49939060505899713,-2.3874851698647603;-5.960441575711683,0.14658395950203684,-9.907211965725793;-5.430417455730178,13.0343140812889,-6.073423065005386;-3.939541788308285,0.34567909023013044,-4.545466734869187;-1.6579288110710801,-3.212113012413688,-14.889493125024526;-23.309600830078125,17.705230712890625,-5.847499847412109;10.782778894285865,12.95620715422953,7.352899643585872;-4.636023118806525,4.881627110519538,-4.500027623225009;-0.5847823441494098,-5.549940536732135,-14.762570239102665;
31.63381168128684,-60.75280805982153,-2.726730743201829;31.032291061194734,3.817555563436562,-11.248501961104022;-9.165959521272667,8.116214562279573,-5.8701119562096125;10.67137765070753,-6.833322130240591,14.488446496491058;3.4916336608902117,3.749834127357266,1.800441805906095;-2.947323772812319,0.825240501873672,-6.693798696567306;-1.6322210457803599,2.957680227994312,-12.080704549650424;-0.6622088418281057,7.780981390605263,-3.329990832731724;-1.2877043308929421,0.49933967142186986,0.20625188534248196;-5.694564291381914,0.10715965097838431,-7.147129876366307;-5.375555507671859,14.118848639191334,-4.375232202899603;-3.8644506147946203,0.3424265260090713,-1.184149565645889;-1.3471512927368963,-3.282354011293213,-10.714585385517484;-23.309600830078125,17.705230712890625,-5.847499847412109;10.751651175954379,14.13997249188855,7.573519407773709;-4.377314512770838,4.8745808474603525,1.2375744465849507;-0.3327064714858402,-5.603202278170258,-9.131693637612408;
31.221228892576548,-60.73431737075417,-1.6281488558775283;31.12521866069059,4.842756326382533,-10.71926405338857;-9.099232480001206,8.108721905054624,-6.851347488337737;11.030612838934971,-6.723455072385417,18.98985247007931;3.579521385065981,3.327620960270922,-1.7408200070778026;-2.9500700889513736,0.8255207417092624,-5.3561042859664525;-1.7070552126086664,2.971267543153674,-8.48197483374653;-0.655484924783139,7.6432250548662495,-5.710372138404139;-1.290385039505283,0.49937325590138,-1.0836793813979;-5.543993559830744,0.09040889101986416,-5.591255908160949;-5.3575044774304645,14.091291432530165,-6.664975186924835;-3.8621327642517107,0.3425132585128319,-1.086265970961911;-1.2342691872403229,-3.302114771639621,-9.212916714826449;-23.309600830078125,17.705230712890625,-5.847499847412109;10.730873155191443,12.014541524382224,5.627382881746797;-4.3729768180185005,4.874780060881844,1.3326807360914614;-0.27947976716401357,-5.61118006264958,-7.956485358396385;
30.698690452961124,-60.724659136510226,-0.24510764211768077;30.9951757607108,3.43136244469068,-11.447549946646825;-8.957642581159584,8.088718982587523,-8.940511008884297;10.887169302046393,-6.770708492170154,17.178254258929712;3.5875095927635376,3.090136281527455,-2.4029320255954367;-2.949846403160298,0.8255148116451155,-5.449720902262726;-1.7611039457503357,2.9780936688020505,-5.903891451757342;-0.6424010525032403,7.932685295324422,-5.706854877077031;-1.2914230828150568,0.49935257873698613,-1.5687362854784652;-5.348193973831999,0.0741637398007331,-3.5713210677945533;-5.353781667517472,14.279055561414328,-5.676295465171286;-3.8816127006014316,0.34258427700270944,-1.947744725193644;-1.1386503273707629,-3.316850988933423,-7.943867608573932;-23.309600830078125,17.705230712890625,-5.847499847412109;10.689388125519642,11.314520957357466,4.333006495416974;-4.377390352882031,4.874334089381236,1.2372817808042669;-0.20836206053844009,-5.6201915057419845,-6.389976288631175;
30.77238601577127,-60.725044521896876,-0.4395600632818404;30.946712589634764,2.9450886990620253,-11.697747368802803;-8.964361282250556,8.089841804719276,-8.84109925018243;11.00832952183962,-6.730997494225662,18.706906377396972;3.61988138702905,3.675172047270033,-2.431144585287754;-2.9468224016916222,0.8251785076871003,-6.95782348363025;-1.7940663221887916,2.981048124548603,-4.339349208159771;-0.6131730501949761,8.514913550237196,-6.229899938748218;-1.2939259980009263,0.49947318063678603,-2.7895544171423765;-5.224106461326827,0.0680425081032694,-2.297067404107274;-5.292647884919493,15.158940023205163,-6.0206515210009215;-3.912423610864209,0.34425218885772946,-3.3380397983487313;-1.0987477082446302,-3.3220556539418866,-7.417497585545608;-23.309600830078125,17.705230712890625,-5.847499847412109;10.65476039940457,11.561311794869251,3.7552676948003025;-4.382447515217786,4.874424268227287,1.1234016358804482;-0.176424033357783,-5.623553690660297,-5.687640894740117;
31.39575372443787,-60.74097023747286,-2.0921034005419976;30.825258368932396,1.800249228847246,-12.285446736016269;-9.045761431706591,8.101806553772722,-7.638731870899784;11.117319242131796,-6.692053876247304,20.094380140429955;3.6591677702384837,3.3993191982945867,-4.163201529855062;-2.944635787944149,0.8248838913961168,-8.043113335865868;-1.8193903091600938,2.982701348092249,-3.1385429942012912;-0.6037570289388031,8.652651516314954,-6.818260213434579;-1.296020534301449,0.49961344629951243,-3.792882716731988;-5.186777709831566,0.06684518566486908,-1.913961170684125;-5.229999900953562,16.043817016586594,-6.361489173062736;-3.921405286588419,0.3450235761775309,-3.7501354830012374;-1.0436395877937363,-3.3287656994474744,-6.690571756979814;-23.309600830078125,17.705230712890625,-5.847499847412109;10.720167235607908,11.73943212572722,5.229001543267955;-4.38758298914954,4.874514897568829,1.0084844923619762;-0.14171555015551318,-5.626747988937466,-4.926318430961814;
31.492641162035394,-60.74569428431064,-2.350423644333686;30.857187219174328,2.0920824619693743,-12.135850007987944;-9.04482965672867,8.101596657262004,-7.653440675775094;11.158130796619252,-6.676241360820654,20.61679269217376;3.6297779072727803,3.5456860745057135,-2.967015666880455;-2.9444471560542866,0.8248750048341744,-8.138449317171258;-1.855933801717903,2.9841649925766807,-1.4092259892336578;-0.5986258918016616,8.78129557200155,-6.678840898399196;-1.2956693027682094,0.4995470914997602,-3.621475974186893;-5.122463745576877,0.06466613821302647,-1.2523479389727115;-5.226062778459626,16.00547272476499,-7.109474495127099;-3.9165760719670084,0.34425773355350353,-3.5149447578101345;-0.9781418114108138,-3.3362099444187656,-5.826099120166347;-23.309600830078125,17.705230712890625,-5.847499847412109;10.594780932923197,11.408725002406934,2.4138790049505765;-4.440237002554587,4.873717342966831,-0.1559946056661623;-0.1404349175954428,-5.626892871237242,-4.897620697059008;
31.7856579439371,-60.76198962256226,-3.132609864562797;30.766044660064722,1.2749422192584818,-12.554387428999306;-9.005646747982194,8.096107192830406,-8.230880873185127;11.056941073976974,-6.713899717695793,19.32413744529749;3.6914995825389987,4.204788647040246,-3.816434167864342;-2.9427083731370165,0.8246029724038094,-9.016883044111829;-1.8672284932839673,2.9843856965810733,-0.8752553780052068;-0.5624170961201449,9.537920089217742,-7.001762778847434;-1.2977868152486622,0.4997164633677767,-4.634723478634889;-5.133423439562629,0.06507726913126577,-1.3652871918862246;-5.2038646130293795,16.264354288094594,-7.632144866383399;-3.9229399629451285,0.3448528861921797,-3.8101738391382227;-0.9752421936846567,-3.336447357369743,-5.788299314483069;-23.309600830078125,17.705230712890625,-5.847499847412109;10.52907170074488,11.804829818211694,1.2825731416726356;-4.4624938631059985,4.874038048839997,-0.6516695420633916;-0.14756182325631662,-5.62622446988183,-5.054351242786623;
31.880197324693267,-60.76833711070325,-3.3855311218190174;30.70549501162688,0.7572740459078853,-12.818962414339133;-8.929560691998187,8.084246798440923,-9.355448693506494;10.927284370305232,-6.758283038054872,17.683197268700773;3.7635503265651655,5.1600402488234725,-4.521167127843464;-2.942723083586778,0.8245788285652462,-9.018215390492188;-1.8711675481586094,2.9844131637374427,-0.6876555016575665;-0.5557229489206446,9.56195060069919,-8.048882330746784;-1.3004256733308317,0.5000075548055246,-5.939978082922153;-5.1864983619673986,0.06689723237006673,-1.911636104105753;-5.182938990449891,16.56235227266889,-7.68911380123015;-3.957362889318606,0.3480747661431256,-5.3751227668171495;-1.0491082367499946,-3.3280997582380634,-6.762430567596109;-23.309600830078125,17.705230712890625,-5.847499847412109;10.517969267282684,12.157696639172485,1.268266166227793;-4.538463042702896,4.876476062520941,-2.342052206411438;-0.1914444123021588,-5.6219224677903945,-6.0183474440932585;
31.65236489082827,-60.75393658543139,-2.7764056235561956;30.61929926309806,0.048923969986376825,-13.180208353046412;-8.832229995881962,8.066662970935122,-10.799693294131787;10.917629363955735,-6.761111142415686,17.56124464582042;3.766550283282101,5.654105960988422,-3.789195700463347;-2.9423600925262354,0.8245725203111195,-9.187280621066655;-1.8639753302165838,2.984361121728598,-1.0271112393184865;-0.5447593714956545,9.816132803459682,-7.911559838215631;-1.3015597310173808,0.5000437684784911,-6.442936180162441;-5.233738289625154,0.06815155800996986,-2.394809580531792;-5.167461445750231,16.772881738202422,-7.771054074029884;-3.96300190067776,0.3477435843789245,-5.596539495839409;-1.1000126483182644,-3.3220968673636895,-7.433016133219624;-23.309600830078125,17.705230712890625,-5.847499847412109;10.507395612233331,12.679232340894643,1.408721740496265;-4.605687979479373,4.879233321032918,-3.8235502808688473;-0.24203346902438205,-5.616176274447561,-7.130619274202893;
31.93457161951155,-60.771916957712826,-3.531170924612905;30.89099890095588,2.4089421949208933,-11.973208738997549;-9.01374490218168,8.097203117895388,-8.112281609666793;11.067384684272694,-6.710085316883096,19.457042378933153;3.9485757787843205,6.706552841291429,-7.8891359545582755;-2.9366284260455124,0.8236384435784244,-12.027073280337504;-1.83762201284854,2.983812517631526,-2.2736191442733933;-0.5156103401869451,10.261210209581055,-9.512760478118244;-1.3051370444005852,0.5003341921613419,-8.13559447702653;-5.293691483835128,0.06992852476341094,-3.008993866965671;-5.136572854827859,17.058733156805257,-9.023701525257408;-3.974816708828851,0.3474640564421293,-6.097364353881609;-1.1425284864721816,-3.3171117004904183,-7.992752617612961;-23.309600830078125,17.705230712890625,-5.847499847412109;10.455170435902248,13.093690251138032,0.6183750758677711;-4.694636769446068,4.8852489598912845,-5.791327319904603;-0.30275567913736656,-5.60803383883558,-8.468549046618929;
32.14082701145214,-60.78814460879389,-4.084786358278803;30.790004579989972,1.5084469659022153,-12.434355175224033;-9.696170575596943,8.134883575367585,1.8961547030271984;10.553943345217299,-6.862501112553572,13.039859181557844;5.382897460180046,9.561109492908615,-57.27241752456624;-2.851041268908578,0.6741641687644471,-108.13789356693785;-0.8433716545318195,2.389547132483643,-59.38467704018902;-0.09712105813615968,14.47385645924741,-59.812186750924866;-1.4026521467722992,0.6515763995442544,-106.02059140964559;-9.717219152124907,2.7124144284038705,-58.22039962253619;-4.617568033194743,19.010814591739422,-62.03345688101616;-5.071562784510622,1.9436548767219155,-104.5547544023793;-4.400142351276452,-1.0170023110321544,-62.346148530210115;-23.309600830078125,17.705230712890625,-5.847499847412109;8.233709160555225,7.722547452500918,-58.61361325667335;-7.0036876657121265,7.617505999128158,-93.38526182326359;-2.0259807625441706,-4.570321711893174,-53.59566465043936;
32.35305023436189,-60.807933659189814,-4.657000169274541;31.288379523153125,6.92482785754124,-9.64041498359076;-9.704538604369043,8.134518642206968,2.0190348045037485;10.25654096301601,-6.922464726905137,9.407052676509256;5.2017702394246985,5.018063065128142,-59.51138355773499;-2.8508675365039857,0.6743503463324404,-108.05644849435492;-0.7476654200992854,2.1886477429327353,-69.92931139921767;-0.24300286758614417,11.150159122904906,-62.42125339510167;-1.4030126572111377,0.6507117121784969,-105.60875790525353;-9.979192436535987,3.1884885190470946,-63.824645322393906;-4.871795704614942,15.164572372571481,-65.76752261077533;-5.071193536817789,1.951269402711501,-104.93250961650124;-4.538257163072171,-0.7309774363985166,-66.52633639366121;-23.309600830078125,17.705230712890625,-5.847499847412109;8.219618232719409,2.9797682408748414,-60.21821501834569;-6.987983749742494,7.810090357386129,-97.69763777203673;-2.227775748446617,-4.251728533110271,-61.85459806230746;
32.43995529299302,-60.81624969542386,-4.891327238000372;31.295238786057674,7.026906706854826,-9.587328030338751;-9.806104814778172,8.12955969752026,3.5078939817870616;10.188574925919632,-6.933365886900205,8.5834688766024;5.173871469869659,3.365684134346414,-63.053558973023;-2.8508918936523377,0.6743727916414535,-108.04276815586599;-0.7371715396387483,2.158485507944403,-71.43871652786513;-0.2692421434652916,10.357863211077253,-66.35043981267665;-1.403125401007515,0.6502364689414499,-105.36932383232944;-10.000011275439714,3.2324072249380844,-64.32368802389169;-4.931350692861852,14.033662711586242,-69.8359201680419;-5.07237718286488,1.9461114299466746,-104.69008578896792;-4.551837970036306,-0.6987170484891334,-66.98481514235414;-23.309600830078125,17.705230712890625,-5.847499847412109;8.10285604535656,0.9212992446263888,-64.88496243171993;-6.981174849410985,7.855401098934072,-98.7068630353503;-2.2532237031809537,-4.202758783052695,-63.06149883350349;
32.07007723925297,-60.78232254262749,-3.894683645122095;31.406480910389988,8.803012957050772,-8.663283479275254;-9.690014983833628,8.13507119330243,1.8064388728503786;10.15208804888723,-6.93903464504758,8.142459956363762;5.204259304555445,3.4758181168868125,-64.67762131944183;-2.8509159679189304,0.674388230170484,-108.02934956168261;-0.7383581278778132,2.161769374690576,-71.27111711787438;-0.28571307377140615,9.961294126395973,-67.05762260604348;-1.4032889391120364,0.6496058617895125,-105.04811865362839;-10.039293375748674,3.318256406322984,-65.29369336596763;-4.921948944078356,14.174066210164531,-69.89155462400278;-5.067254920122517,1.963592421298154,-105.49287112697598;-4.560440887274749,-0.6774558156639998,-67.2853236553719;-23.309600830078125,17.705230712890625,-5.847499847412109;8.107784525766878,1.2560725725210107,-64.80181114492018;-6.9823492109094865,7.843707604630599,-98.43848999114371;-2.2712721926812227,-4.1662249742890545,-63.95167024436675;
32.5514822398192,-60.82794031654542,-5.192880923446291;31.507690173805535,10.957422912179137,-7.538856936762224;-9.731121799469832,8.133490495234962,2.4085114474716907;10.201603028660958,-6.931417637593233,8.741210775983212;5.206436047260988,3.278948780081614,-65.5276040296252;-2.850893498512864,0.6743007881648715,-108.0798959839006;-0.7393431239388342,2.1648604510851426,-71.11987897675345;-0.28705301402419753,9.885698716005033,-67.96238767477952;-1.403407108927083,0.6491469083067734,-104.82691285471324;-10.034254126848976,3.306259423526237,-65.16129798775101;-4.943366009642897,13.798970117253615,-70.78453803874908;-5.069375112521717,1.9572259145453361,-105.20448441526233;-4.570319590115805,-0.6543401709788343,-67.61639311155696;-23.309600830078125,17.705230712890625,-5.847499847412109;8.112607906281704,1.445651678716536,-64.63219292261553;-6.984840942395337,7.830074463824053,-98.1392491394457;-2.301407091699324,-4.1025671555505445,-65.49324983915413;
32.241011988330925,-60.79725299036966,-4.3548140632941905;31.530981215815807,11.599307777763482,-7.203334519822464;-9.632609533782842,8.13643282829066,0.9654183300585064;10.166248270127518,-6.936772721382494,8.313304775449065;5.21185270839201,3.3616223937776795,-65.59951144001379;-2.8508913696606233,0.6742839204937456,-108.08898688061281;-0.736739067425213,2.1571279184351226,-71.50584284434939;-0.2891884769009942,9.82954215429612,-68.15429624482208;-1.4033087296001594,0.649546230061887,-105.02610116306425;-10.0462217647237,3.3327054875860815,-65.46001338277036;-4.9624338039845,13.479087228153798,-71.29627694475289;-5.075359394013941,1.9344521937037982,-104.15088457552446;-4.588191869907496,-0.6101231587511375,-68.24266653320063;-23.309600830078125,17.705230712890625,-5.847499847412109;8.091565837790386,0.8399012072705387,-65.39254865569569;-6.995208602176276,7.747657298416063,-96.30039717722956;-2.3255653318497025,-4.047908354525979,-66.80014782827132;
32.34110745467176,-60.806247477504954,-4.624193498079276;31.539556982984596,11.86037321700699,-7.066790001973468;-9.606827723240439,8.136835856700088,0.5884571026333774;10.048855898487046,-6.952810744018766,6.896608459072686;5.175152240941412,2.908089623440852,-64.7441301888285;-2.8509147477873746,0.674328566627878,-108.06089069065683;-0.7245264750774216,2.1182756419710422,-73.4306729699961;-0.28649851954093986,9.925905916455415,-67.41232707439244;-1.4030860494466662,0.6501691495054563,-105.32826413097294;-10.073257426617808,3.394368587536719,-66.15209876126703;-4.945842658239868,13.782013483727976,-70.4082654351489;-5.072242516396287,1.9450704917737176,-104.63457350378773;-4.623071163711501,-0.5189799070903143,-69.52482890009122;-23.309600830078125,17.705230712890625,-5.847499847412109;8.129830379739687,1.8502434724339416,-63.96346594464864;-6.994203408610097,7.753351733627892,-96.42424148384174;-2.3653589864743014,-3.9494605301110894,-69.12242214431943;
32.33205800704712,-60.80561095625593,-4.600111902369825;31.46836389796111,10.025351627234226,-8.02576088172119;-9.581126916028959,8.136980308188656,0.2122457574888852;10.067218733779017,-6.950396295079206,7.11766630773022;5.184321984454736,2.8320502831059646,-65.64245605782777;-2.8508953742987924,0.674315231183604,-108.0719132614812;-0.7305365889151121,2.137949421513393,-72.45892318119178;-0.29435901128952013,9.713253057525353,-68.22419059930044;-1.403305503684352,0.6497176358968165,-105.11021232985652;-10.053262551900511,3.348534827306281,-65.6379311123138;-4.952494968211417,13.617270336155265,-71.60878374998504;-5.0756939847749,1.9328519991116064,-104.07577441698234;-4.613227245162614,-0.5456309522079894,-69.15177193000645;-23.309600830078125,17.705230712890625,-5.847499847412109;8.075120786642554,1.366913731081179,-66.44805879344061;-6.999067420139385,7.708868440816915,-95.43643930061;-2.3527654742009583,-3.981924069277553,-68.36131453655987;
32.401176458948555,-60.81245159010588,-4.786738154875782;31.55682305125712,12.467825779230031,-6.748897641622175;-9.544212712830742,8.136931275188106,-0.32790437650021786;10.127199187624802,-6.942385179164769,7.841335960962573;5.190997121197512,2.8286864560796516,-66.1179669561239;-2.8508834539039567,0.6742947683764176,-108.08488449693851;-0.7302822407275795,2.1373290651688412,-72.48982008997056;-0.31562903505252893,9.247554996072216,-68.1802055223411;-1.4033453446295585,0.6495226653614856,-105.01801339567137;-10.07326596092145,3.3938477280148387,-66.14745158244249;-4.96637972276537,13.468334177527444,-70.32899960048687;-5.076366904684392,1.930818532293547,-103.98586818866917;-4.617412498270504,-0.5343877796155718,-69.30888303136501;-23.309600830078125,17.705230712890625,-5.847499847412109;8.126759445917637,1.7041205399049542,-64.04703339088152;-7.001795972829733,7.679134073988612,-94.77563541245019;-2.366666369294057,-3.94593808855858,-69.20490902660039;
32.81282795157081,-60.85775024272018,-5.901266041797419;31.47149100693631,10.091788067607268,-7.991098338349128;-9.576619840159841,8.13703234718332,0.1461964886584397;10.109303294716458,-6.945013501879224,7.62562143697941;5.1830011458386505,2.6626188378988123,-66.20126369895931;-2.8509330129923556,0.6743029975964053,-108.07039611701217;-0.7337443670431648,2.147859535318589,-71.96588895554387;-0.3118491171277974,9.318688071033883,-68.45700561204227;-1.4034424369981828,0.6489028287581329,-104.69026898835716;-10.094863903366875,3.444666072994444,-66.71637799523975;-4.927212223636083,14.058067206579658,-70.59760085791794;-5.070425506537365,1.9509458308505339,-104.9000856740742;-4.625330413065891,-0.5131931251232762,-69.60781179891538;-23.309600830078125,17.705230712890625,-5.847499847412109;8.113771356638495,1.8386842898763325,-64.73182138524615;-6.996790228375791,7.729151187451778,-95.88763399316124;-2.3620245259707926,-3.9584977258102674,-68.9129260130374;
32.69819995481857,-60.84497791102796,-5.5907765225822255;31.509821265847044,11.092875332890149,-7.4678712579723925;-9.636020794884095,8.136297637175572,1.01582977020969;10.1725855212351,-6.935795466237838,8.390178738477786;5.086400843354575,2.646167586680166,-60.43475832052512;-2.850113196096528,0.6772264421047328,-106.56482560993874;-0.7407006067113013,2.168188332682253,-70.94878274015323;-0.3301224411465441,9.196424631202216,-63.60989007315048;-1.4040056552499087,0.6463461441901889,-103.42744416124184;-10.070922605202984,3.389821328484689,-66.09940176104195;-4.9330482370678554,14.276980590343786,-65.68760315898572;-5.078226724685414,1.9180912095972698,-103.384192951973;-4.606081425747692,-0.5633595911914255,-68.90017526101803;-23.309600830078125,17.705230712890625,-5.847499847412109;8.21420787206101,2.861705716936295,-60.67121149965614;-6.998649523604618,7.702522176368303,-95.29423556808152;-2.3587132076501205,-3.9667089332244703,-68.71761489555874;
28.856355772492964,-60.80668667406874,4.578512588295928;30.367681395001284,-1.8528345931342,-14.145231380864097;-8.541303879836358,7.998761109229403,-15.15999036157341;11.045545416130254,-6.717102989273162,19.182232739132107;3.424392936453687,1.6016048338814017,0.19129022834383935;-2.931331938606802,0.8221863537172581,-14.794005392919859;-1.5061867386189816,2.9235239173403365,-18.259878817501388;-0.7614571961551949,5.7808046371244055,-1.6498639809821274;-1.3059410509940879,0.5006996515651503,-8.61837882797554;-6.463665452374269,0.259694242124753,-15.214846748859742;-5.472674391873597,12.607699519427056,-4.29903711282337;-4.066728566815011,0.3629806311404334,-10.333727185593126;-1.8216671780397455,-3.165029573642634,-17.12490462689336;-23.309600830078125,17.705230712890625,-5.847499847412109;11.105237851578579,16.072503793732466,16.71918504414576;-5.3095705969734155,5.027991766609248,-19.84704146796916;-1.106548688598017,-5.350796643460896,-26.99047868026318;
30.649629785615264,-60.724269639291684,-0.11522223337859394;30.64834539131206,0.2842436290489996,-13.060253317478692;-8.931911560980215,8.08459414793014,-9.321056343187184;11.165467921156404,-6.673742412440041,20.711162493331692;3.557859230300968,1.3935474390949332,-4.449231750344236;-2.944300362318931,0.8248436541714997,-8.208417140202014;-1.6627229003480217,2.963767487599974,-10.608445303917815;-0.7977415192233119,4.704025811427977,-3.8224461195303228;-1.2962081335731457,0.49960240652204835,-3.8745631592300107;-6.022626844354641,0.15864509314502262,-10.560594640426466;-5.51036444073307,12.21300596087821,-2.789849735915027;-3.9596813183565818,0.34783686161185057,-5.456564924918737;-1.5305574425934978,-3.243553349995145,-13.171242793232967;-23.309600830078125,17.705230712890625,-5.847499847412109;11.08060264144352,13.330311751600817,13.919810911664895;-4.890997286620962,4.915029671765748,-10.20979708653732;-0.8357353378914858,-5.469981595171919,-20.52151758213873;
30.95810483943812,-60.72759522228627,-0.930651043416427;30.51847636835278,-0.7405225645556346,-13.58168414580324;-8.92777622531521,8.083908033093353,-9.381804143842963;11.164344507454299,-6.674039430853267,20.696649693966243;3.6279861908272215,1.4105570710001476,-6.661219637102707;-2.947422219990731,0.8252541191821934,-6.6437761578308425;-1.7500535633279233,2.976900329519456,-6.429355310382009;-0.7821452711355472,4.759249850816968,-6.2327547933393;-1.2952207358902867,0.4995407711197299,-3.4016746276092675;-5.694397056782494,0.10704247946957612,-7.144829883050647;-5.438387884121965,13.028135303215526,-5.206985737310108;-3.9872682676756046,0.35083394974174453,-6.709980214776467;-1.4249737117768142,-3.2669558666049126,-11.753721049447073;-23.309600830078125,17.705230712890625,-5.847499847412109;10.91361834579561,12.966105563737433,10.109266946928567;-4.7643132921452045,4.895300745934051,-7.36657119412337;-0.6921626943297382,-5.519108326774494,-17.20376056504487;
31.42448583446788,-60.742534873118124,-2.169035279688501;30.635196778273656,0.17699630389222776,-13.11492927946891;-8.960149954311632,8.089160681606158,-8.903423457388232;11.1779107894477,-6.668688322392682,20.870932952824504;3.6603749398933942,1.649273639422395,-7.270974415637446;-2.9463947804254285,0.8251248528184236,-7.167035642270264;-1.7997130903891194,2.9814650344018925,-4.072474186504625;-0.7402050589803715,5.53425285717913,-7.59872962113498;-1.297102571996737,0.49967435886240824,-4.335991004938872;-5.504341136864069,0.08635315878650052,-5.180810457090251;-5.274909681774696,15.305679472296875,-6.9387223480574285;-3.9638974555600854,0.348362289753363,-5.660197346901333;-1.2378820555847918,-3.301701973788332,-9.260083596976795;-23.309600830078125,17.705230712890625,-5.847499847412109;10.857342750654205,11.974599789814931,8.254978850145088;-4.727738814021406,4.890880533233942,-6.5505708037317705;-0.6339721791865767,-5.536404481181673,-15.878471029630628;
31.279518458274385,-60.73639453833258,-1.782943059728563;30.478103430058784,-1.0457996749905654,-13.736619193467153;-8.847995539591206,8.069704416622738,-10.565565888797;11.176211084969163,-6.669578117236713,20.84920441723237;3.640880811689016,1.90934497650402,-6.183620659441545;-2.9466125830799035,0.8251574089418295,-7.051856682897769;-1.8351738367608126,2.9834689965327086,-2.3921214304233565;-0.739131475378237,5.569853866255365,-7.495835899606215;-1.2990709738131452,0.49983135663385747,-5.260364271430808;-5.424000635710285,0.07972723177310556,-4.3528851494391825;-5.219966808339375,15.95940593332833,-8.177248109846087;-3.9650731362254037,0.3483642205373144,-5.704362020224327;-1.1757833917808598,-3.3113746010956633,-8.43652473605678;-23.309600830078125,17.705230712890625,-5.847499847412109;10.849153401956077,11.361100070072618,7.705965565694121;-4.706732303596253,4.888435866778399,-6.077890470199529;-0.6046955697403474,-5.5445456817129335,-15.214661430591661;
31.293726298293535,-60.73695418147431,-1.8208467427211419;30.50812762361891,-0.8195655424443853,-13.621893861694137;-8.795145145338605,8.059350182736244,-11.351642815459963;11.012469184511035,-6.729601441866884,18.75940271934806;3.6851465694550045,2.5058656414145704,-6.546602458918455;-2.94364363456749,0.8247479252637724,-8.540459241649156;-1.8455950844058184,2.9838598157828726,-1.8981780581924617;-0.6992613188079667,6.512626634223066,-7.0491384296457;-1.3011171531971708,0.5000430343473621,-6.266436026060398;-5.402349588199803,0.0780803729287948,-4.129991366670636;-5.171045404452341,16.6632997686676,-8.246633795627904;-3.9831015980149287,0.35034009065091487,-6.521734845029885;-1.2243540540667646,-3.303866074553114,-9.080214607166662;-23.309600830078125,17.705230712890625,-5.847499847412109;10.660044092659346,10.474056042465172,3.2412654005347097;-4.758013643740646,4.894473518053257,-7.2243673864023785;-0.5940735901137911,-5.54742846654883,-14.973605623790984;
31.377355441123644,-60.74055172278089,-2.0436663437708082;30.50138929218805,-0.8706486305547276,-13.647790694123552;-8.782220769750108,8.056683370058598,-11.544678492613777;10.969838149994628,-6.74398515272039,18.219758339707848;3.681416331480409,2.8495538824122035,-5.825427323220227;-2.941294894540885,0.824364714440081,-9.724685231641207;-1.8491684949519183,2.983968245411995,-1.7284917357109082;-0.6813186310093906,6.9011004509496585,-7.125273740922185;-1.3040064084670484,0.5003976146293971,-7.660643428626208;-5.441511090020424,0.0810099784432547,-4.533160716454844;-5.12649150668128,17.242025457934822,-8.73340098018403;-3.9897315175602577,0.3512014599164653,-6.826863273998664;-1.2727939303074214,-3.295809462180184,-9.724408019179597;-23.309600830078125,17.705230712890625,-5.847499847412109;10.701077695084782,10.836474243091175,4.2964961350492965;-4.721063577666327,4.890145124779853,-6.402139427420375;-0.557813439595688,-5.556779804692119,-14.154988795648013;
31.30309897632319,-60.73722831888705,-1.8456599035020576;30.623253222383184,0.08082247999979009,-13.163962352735895;-8.794391744199322,8.059195085941871,-11.3631857741484;10.945185038663674,-6.752329125381534,17.90865592311078;3.68556972744093,2.992608887044505,-5.709338503871889;-2.9401609831973663,0.8241693931088516,-10.294086191112566;-1.8575472539668043,2.984200087199218,-1.3304245222539315;-0.6695214419546696,7.15910205290695,-7.160892795578299;-1.3043239335172943,0.5004336963482364,-7.801626509572017;-5.4488434452415255,0.08166715927831483,-4.609253812311515;-5.110184199778158,17.44561528721357,-8.958586493679771;-3.983641561571501,0.3503731676052646,-6.545025849903922;-1.2860907197643947,-3.293551344407068,-9.900572507694083;-23.309600830078125,17.705230712890625,-5.847499847412109;10.73279863918042,11.328433225717808,5.24720780902389;-4.749817479358054,4.893410178404461,-7.040440382176105;-0.5745522206718044,-5.5525338304399305,-14.532435880865126;
31.94996341418115,-60.773230886506475,-3.5724725731569418;30.563890368660438,-0.38959473413081547,-13.403355616911192;-8.921764614056315,8.082895404010129,-9.471017790714342;10.926777031833202,-6.758342722837842,17.67668476449351;3.6777416019402427,3.1285790577056867,-5.2227601306648435;-2.939080236409852,0.8239643573662041,-10.845042651677723;-1.8536275607850987,2.9841008172930246,-1.5188276260019222;-0.6703116128941258,7.195622538066237,-6.7073052159264215;-1.304645804567168,0.5004786155586746,-7.956866965936584;-5.44484936292014,0.08133089384210271,-4.567709985015153;-5.1170016558593145,17.381086152576113,-8.7004081890775;-3.9852039531808696,0.3505737028529776,-6.617398430356097;-1.308174301679665,-3.2896361063737296,-10.195348330571829;-23.309600830078125,17.705230712890625,-5.847499847412109;10.703170536087818,11.066268952563354,4.473894296217808;-4.811555018993671,4.901864629757059,-8.424187385041302;-0.6071384086361227,-5.543861859670771,-15.269168449303212;
31.743538134256063,-60.75955982426795,-3.0203067959510346;30.642948080706027,0.2397934602067764,-13.08295925370884;-8.816944955970042,8.063699225553492,-11.027332877067305;11.03295976897449,-6.722323892014118,19.019302263462016;3.7164427942098617,3.3065109079201385,-6.152779362818844;-2.9380451120567996,0.82376288879297,-11.352898131108367;-1.8539678890752922,2.984099444420354,-1.5031166295160663;-0.6543649941215521,7.421721021249363,-7.765408856237924;-1.3061855737320895,0.5007070135746468,-8.705896167757793;-5.460847757935706,0.08259149315866587,-4.732285182503748;-5.090384062217978,17.62616525637696,-9.775330478069117;-3.990436544141785,0.3512913192743138,-6.8585489417098735;-1.3470742832475098,-3.2824107795160593,-10.713535803884643;-23.309600830078125,17.705230712890625,-5.847499847412109;10.664099772328786,10.996500866102078,3.6147481998232927;-4.895519405637831,4.915872045322292,-10.315275079940974;-0.6546896522463298,-5.530413077734129,-16.34941065719696;
31.690907837100994,-60.75600089296719,-2.879082321316808;30.723662093478783,0.9104265853060403,-12.740752064963202;-8.833783108871605,8.066989959662196,-10.776759478929282;10.962825578355849,-6.746459820965493,18.13128917280048;3.6996693776950336,3.2729641548029367,-5.674111309695435;-2.9375978010464876,0.8236720491220899,-11.589757343361567;-1.8615542506428837,2.9842872223064862,-1.142084610543554;-0.6583018324151153,7.368788789318513,-7.485233822288684;-1.304603398920907,0.5004754622848816,-7.946706706489007;-5.447436021188901,0.08154317746951284,-4.594681901772629;-5.096880970599336,17.662843825606586,-8.721570084517232;-3.9852231841080528,0.3505653925516782,-6.617431753274644;-1.3527881650467308,-3.281375372574541,-10.788980478275455;-23.309600830078125,17.705230712890625,-5.847499847412109;10.71237262440435,11.171599229938934,4.72725375041989;-4.862092613131042,4.909860063529636,-9.559092259192145;-0.6396338732181261,-5.5347523678340185,-16.007852167460044;
31.64244044803447,-60.75319243089597,-2.7495934544213156;30.600082836858633,-0.10474066514399816,-13.25846789405158;-8.850363573049213,8.070152285296146,-10.530260942107844;10.814439633807957,-6.793268137616269,16.267582788349788;3.690605428360238,3.2192496338394445,-5.477066054437282;-2.9372499040031794,0.8235973370469578,-11.772332580437977;-1.8695012010767436,2.9844207071272155,-0.7663239546943359;-0.6558389499122542,7.498204462251749,-6.853643539275357;-1.3057295182893072,0.5006394487576146,-8.497646872303125;-5.4744782956359925,0.08379136029193784,-4.873321347921386;-5.100936945175946,17.58866664745996,-8.86353999023193;-3.9888481493372803,0.35098441084341725,-6.779171011376516;-1.3626498173091797,-3.279471979078816,-10.92032732719457;-23.309600830078125,17.705230712890625,-5.847499847412109;10.724223761375589,10.710728546843885,4.712351059870604;-4.877704471000797,4.912543410816616,-9.910309244288019;-0.6338673137115549,-5.536420782092121,-15.876201832701446;
31.753544417733643,-60.76024268240377,-3.047136802831762;30.55399668060883,-0.46675228357370124,-13.442604972225519;-8.842717203225334,8.068701609273731,-10.643646012523938;10.724357496312644,-6.8189110054910085,15.145166462473913;3.7103684047683827,3.2247379927477393,-6.099807971553316;-2.9361994876968587,0.8233754539156171,-12.289164480560332;-1.8690892396922512,2.98440143626217,-0.7861328025746559;-0.6438326760201334,7.691404786806137,-7.454136504817117;-1.307451401935214,0.5009072292136709,-9.320666514129098;-5.489767616401902,0.08508158152869011,-5.030700819186448;-5.085870248842777,17.706491698797088,-9.639476978164708;-4.0004969526453245,0.3525417423127002,-7.312141587836759;-1.3931147166993112,-3.27345369848236,-11.328163407635857;-23.309600830078125,17.705230712890625,-5.847499847412109;10.616311953834344,10.591201393434941,2.389749445246289;-4.9238204735492115,4.9212132585089226,-10.954984166022667;-0.6299462130557738,-5.537539793108523,-15.78642265183925;
31.497471241112677,-60.74561643306229,-2.36298080963423;30.759317498048834,1.2164487334876115,-12.584297253790389;-8.93184521137592,8.084585724657423,-9.321766478897212;10.79445340245102,-6.7991418228928735,16.018034929919374;3.7362452473577523,3.448580311510823,-6.541471178982842;-2.93615883780318,0.8233690699789895,-12.312497720348086;-1.8688548619762806,2.9844095582065493,-0.7983052657227816;-0.6304662077531054,7.9010544816727135,-8.176251460182172;-1.3070894346463515,0.500845984093483,-9.143290594408999;-5.464507103033515,0.08293971122914912,-4.770411163542499;-5.080310749533174,17.793842798239844,-9.565769383443733;-3.9868277083171115,0.3507567287644604,-6.688233713452334;-1.376326595416777,-3.276822456148565,-11.103114509463111;-23.309600830078125,17.705230712890625,-5.847499847412109;10.6862678576109,10.734770043961147,3.9320921540707774;-4.897478094121748,4.916110866571864,-10.35696204371571;-0.6083211008255242,-5.543521889417946,-15.29687361706182;
31.841421655486904,-60.765473476594885,-3.281447229765879;30.67973650845834,0.5420393917415769,-12.92881678530598;-8.853546775563636,8.070751220115078,-10.482922934341472;10.77378522330048,-6.805155207876402,15.760312584832597;3.7215784242246133,3.4931509247147314,-5.995123231798713;-2.936759417852764,0.8234986049452371,-12.010217099694303;-1.8688623819436065,2.9844145144580203,-0.7952996037274964;-0.6316403187554913,7.91877183171244,-7.809713394300086;-1.3063551304938044,0.5007342853179276,-8.800507517557737;-5.447730993009022,0.0815653107963416,-4.597599201967748;-5.094276362853704,17.58994459241613,-9.617168836916996;-3.9896717206574026,0.35107079024300875,-6.816207112927742;-1.3839668524869313,-3.2753157446303334,-11.204932557594198;-23.309600830078125,17.705230712890625,-5.847499847412109;10.673606123705936,11.286868835200137,3.985116814483156;-4.913384534959803,4.919049342691181,-10.715390847680755;-0.603935343016041,-5.544767935602362,-15.19693932561111;
31.730019081414497,-60.75885425073424,-2.9843230772356684;30.72874259920482,0.9537553252794346,-12.718600017805505;-8.834796172299418,8.0671835920249,-10.761374590989067;10.827361052161605,-6.789253583062888,16.428982770597287;3.7038619058702977,3.141390513212471,-6.035999915882364;-2.935460393890927,0.8232077306030618,-12.673189050558033;-1.8719098922264084,2.984435120928947,-0.6541526592080888;-0.6413234307144459,7.666846934055093,-8.131944655712296;-1.3067089392075815,0.5007896461506447,-8.965877559276908;-5.465518597670348,0.08299642555965536,-4.780715241346295;-5.085136381657379,17.712864120028268,-9.67411204770561;-3.9887266154518137,0.3510826013170147,-6.778118997611429;-1.4035048375338144,-3.2713534637728765,-11.467196809737729;-23.309600830078125,17.705230712890625,-5.847499847412109;10.724199151941406,11.111276777583049,4.937301846591846;-4.886481390753794,4.9142527724200535,-10.111554716830966;-0.5833429455655337,-5.55020523435533,-14.731260854159023;
31.483122469189464,-60.74497565918468,-2.324814753771385;30.638361019191944,0.2027965775574243,-13.101808304704821;-8.809802025211194,8.062296902515584,-11.133333041120256;10.761700456131782,-6.808546417953559,15.609844810964667;3.6911698270324615,3.0494942915989682,-5.789544097796982;-2.9352048969844136,0.8231539616766163,-12.800684220330538;-1.8781110691141851,2.9845022845221947,-0.35903387627593375;-0.6285921167485725,7.891719997381375,-8.600034367584431;-1.3058817660073392,0.5006637015730696,-8.574016418285236;-5.436415200248304,0.08065070449356837,-4.480792664015381;-5.065906899007083,17.91562668369387,-10.228474051659859;-3.987892868135843,0.3508964441203976,-6.737954754155091;-1.3882995623501266,-3.274461239021113,-11.263205870989989;-23.309600830078125,17.705230712890625,-5.847499847412109;10.744558907082856,11.664706222068865,5.696444061159245;-4.864686031118832,4.910324131984476,-9.61791281981469;-0.5665031539312291,-5.55459868109394,-14.351463746299732;
31.274171891580476,-60.73602309077324,-1.7684727059659462;30.799020713292975,1.5669851073750145,-12.404884098434783;-8.818583181083788,8.064034583319959,-11.002734529853976;10.839176191821736,-6.785766628936599,16.577258992329984;3.7129705173763536,2.8190080722381596,-6.889088819968005;-2.9362654437190683,0.8233926241374014,-12.260563143210856;-1.8870433193093372,2.9845330105695576,0.06451321551382527;-0.6356798441087861,7.776076087251264,-8.256631884724033;-1.30632768290655,0.5007283656857466,-8.782185554722787;-5.446127418914674,0.0814326937152837,-4.580807750849582;-5.075242455877081,17.816868570317446,-9.959171903233111;-3.989354661236885,0.3510183716926015,-6.8013635505311605;-1.4180851742116278,-3.2684444573423774,-11.661207693929867;-23.309600830078125,17.705230712890625,-5.847499847412109;10.652683209717521,11.113721453700682,3.4468877446911876;-4.873199432114621,4.911722712408502,-9.808163604571767;-0.5421200295775318,-5.560716919706656,-13.802599461186663;
31.757301330677535,-60.760616174437416,-3.057369879879813;30.637908828316608,0.1989189585685427,-13.103835813499483;-8.820709246485078,8.064437610897297,-10.971393509317764;10.861713955699395,-6.778785227260388,16.859125852739865;3.704697656155646,2.549515532330661,-7.095837030996009;-2.9347629181462023,0.8230478640929477,-13.029131260441087;-1.8822758738790244,2.98450760288519,-0.16311202645199607;-0.6449043744760405,7.4607372805089724,-9.192029633976329;-1.3068494087795461,0.5008113967979538,-9.033124878610726;-5.46163285095292,0.08267612463430588,-4.740606486062498;-5.102077883774016,17.373317749134678,-10.487672514921654;-3.9934446567780726,0.35166523630810476,-6.994902382996303;-1.4299341183949306,-3.265935547670692,-11.82015895349203;-23.309600830078125,17.705230712890625,-5.847499847412109;10.741137131056874,10.758655862351329,5.090311862287237;-4.890100737231984,4.9148995270547875,-10.192658419437846;-0.5548342520740173,-5.5575462145460985,-14.088519674924607;
31.758167855152802,-60.76022611823758,-3.0590130764518015;30.56023105207042,-0.4185204489773726,-13.41808013353177;-8.757379643966999,8.051475510960936,-11.915054371546166;10.801854214608353,-6.796931734430114,16.110327693233884;3.7358894876564674,3.01138992636432,-7.287663400861389;-2.9340719712744368,0.8228840310078144,-13.389463595438771;-1.8863971819078342,2.984524243169761,0.03229857936985692;-0.6168364642364811,7.998689390036897,-9.880514829683705;-1.3068973082687751,0.5008167132620256,-9.052970540954766;-5.469596378040023,0.08336168368292468,-4.822996927349015;-5.046992350936245,18.039238263175662,-11.401246700369054;-3.9918911913566797,0.35139132004256857,-6.919695386638182;-1.433783718344113,-3.2651192837403924,-11.871692388399344;-23.309600830078125,17.705230712890625,-5.847499847412109;10.628333332115036,10.788819024512259,2.7516424735705063;-4.9612797712068515,4.928672257127344,-11.799520583021023;-0.5630378083123118,-5.555476900719849,-14.27333999249123;
31.623742473424787,-60.751871832066804,-2.699233730013156;30.648861250469327,0.28790368927751775,-13.058455205323195;-8.787089194680595,8.057701047218995,-11.471741655081662;10.870416451386738,-6.77622919883319,16.968315860296443;3.764445553583807,2.8825018825376443,-8.4286968095903;-2.934641846035667,0.8230224091720648,-13.09576172910098;-1.886655414233221,2.984536359753813,0.04537273101142336;-0.6243726534301761,7.867915258541358,-9.581147233997903;-1.3073563287362655,0.5008903077047857,-9.277958389909076;-5.477857108474449,0.08408033130729714,-4.908300669634009;-5.056748772013779,17.898431805225943,-11.43070021413325;-3.9956765527833227,0.35177240373403706,-7.086163936623942;-1.4670020998545614,-3.2580576872263625,-12.31704612836973;-23.309600830078125,17.705230712890625,-5.847499847412109;10.633317695900438,10.454174841758038,2.6740822631363175;-5.00098002004211,4.937228837289925,-12.69949118960605;-0.5631230004031674,-5.55551289636187,-14.274688878152663;
31.583655308305087,-60.75056436715487,-2.593627956367672;30.720478291907735,0.8836956567799987,-12.754422106872534;-8.77792548054439,8.055791268434294,-11.608588474087496;10.92616618361238,-6.758442786079395,17.668919546180653;3.756630539083911,2.7271239150158904,-8.449421708025092;-2.9354156695642484,0.8232030190615204,-12.68477895716963;-1.8880934567159164,2.9845099019240133,0.11223192629484924;-0.626969680547124,7.728391272743075,-10.265816220788894;-1.3067981124878254,0.5008056922402562,-9.016184343569117;-5.472929128439396,0.08363586960535296,-4.857382394065593;-5.114642667021387,17.178744349188932,-10.619179654257685;-3.9953369668434897,0.35189254283348326,-7.077380903020903;-1.4782472627086616,-3.255525447954602,-12.467884030717798;-23.309600830078125,17.705230712890625,-5.847499847412109;10.69756787489323,9.564839387243124,3.559775366580828;-4.9979391574074175,4.936737650555839,-12.634049060549751;-0.5320044672099106,-5.5631718820493825,-13.5743157566015;
31.838517836901183,-60.76561833000215,-3.2741670889858767;30.792605325561347,1.5083444121321543,-12.434956082071317;-8.828691569743524,8.066009613861233,-10.852442888253425;10.999093522290465,-6.734145444581486,18.589901898249074;3.7624898944376355,3.108332945536678,-7.971798912340747;-2.9366996077173617,0.8234819069151694,-12.044509694754677;-1.8850005539624501,2.9845213441516076,-0.032049692685137465;-0.6046221805426044,8.181539662037709,-10.604821647294873;-1.3044261003302353,0.5004479468990471,-7.8470011555208155;-5.443954841496052,0.08124248815199156,-4.55824396145629;-5.092366006947022,17.51405373664604,-10.463353624122817;-3.9923110880913013,0.351457757224814,-6.938653949068808;-1.4441910592480087,-3.262906475330377,-12.011191452639356;-23.309600830078125,17.705230712890625,-5.847499847412109;10.710765756523879,9.921064325952909,4.012120364893766;-5.06193267770328,4.95192436406918,-14.092805647714709;-0.539312088638784,-5.561400889303362,-13.738800584900321;
31.825621002024857,-60.76404903066074,-3.2385446314427764;30.570057789707924,-0.3416546991472895,-13.378995683386272;-8.704143658049185,8.039707222598466,-12.710723909792447;10.760002973024786,-6.809080471029784,15.588645437389168;3.7421672790678344,3.1315956555951248,-7.280220581134376;-2.9363706119142834,0.8234106873898449,-12.219425066911976;-1.881101786201054,2.9845307112599806,-0.21853693524691398;-0.6066603977328497,8.173180744680927,-10.29287608423401;-1.3039616348635241,0.5003828514581543,-7.619246599730136;-5.431811814010752,0.08029926829096379,-4.433938642821138;-5.095781344736973,17.50511344996235,-10.139305491940759;-3.9999337244595066,0.35228960275654597,-7.277816180871795;-1.4396068613718283,-3.2639982009994526,-11.949021203685989;-23.309600830078125,17.705230712890625,-5.847499847412109;10.76196963057214,10.235756810781053,5.247781714744942;-5.0632557966246345,4.9521122626476854,-14.119967115852663;-0.5249853270488962,-5.564891300994684,-13.416133945339336;
31.62124598141947,-60.752696174778585,-2.6940480255886;30.572262166693413,-0.32420960595158554,-13.370153176388978;-8.767458075159555,8.053612359286147,-11.764887325537686;10.649722904227584,-6.838816574997782,14.220273359131832;3.767942270713019,2.8000278447024805,-8.684733565128475;-2.935850452343696,0.8233001311702515,-12.464743874828372;-1.8833381344142732,2.984509514644041,-0.11271477625793125;-0.6115572347484693,8.00110848353728,-10.840230354161267;-1.3048369833249804,0.5005078903810722,-8.052938211539932;-5.471926762022187,0.08355477993763372,-4.847098027406975;-5.074089611701048,17.765601737321614,-10.517721745720863;-3.9940472338169943,0.3517379318054208,-7.020546408678804;-1.4395509208152593,-3.263851815500641,-11.949919640162896;-23.309600830078125,17.705230712890625,-5.847499847412109;10.783560442830165,10.783158194497442,5.9917017868639135;-5.08496625177632,4.957922538823632,-14.622017357639365;-0.5381198426859264,-5.561713748810808,-13.711655189382293;
31.695486177166877,-60.75667568914616,-2.8919118397335914;30.683097726725197,0.5701450820369205,-12.914466734276889;-8.833578626295537,8.066921316920874,-10.779790130477004;10.624413084754895,-6.845345845832578,13.907564153638582;3.7550172990122577,2.736516887301657,-8.381265191853196;-2.9371333569664335,0.8235778258969437,-11.814218645378276;-1.8915955609624469,2.984504120518049,0.27698254247924226;-0.6212493729607304,7.8949519652193425,-9.932796603168494;-1.3053294399103712,0.5005804361321029,-8.299090697489504;-5.495884786961393,0.08564861705710425,-5.093746063148103;-5.093579256934572,17.55458906819954,-9.99341153363325;-3.9981345862386215,0.3522058898727186,-7.202925023598631;-1.4337726954740382,-3.2650750924895675,-11.872348801683795;-23.309600830078125,17.705230712890625,-5.847499847412109;10.80069612489499,10.486966977465851,6.188700418111097;-5.060484527253407,4.951585460707459,-14.05992524174097;-0.5196041509011842,-5.566163982484109,-13.295894213295007;
31.226168667637303,-60.73374410022268,-1.6399735080444202;30.57589286950674,-0.29574223649249287,-13.355648738218532;-8.744196006171885,8.048606945134322,-12.111377570834065;10.605444927045877,-6.8501385100504955,13.6735334737824;3.7869208122765605,2.4342141639618218,-9.939865669006707;-2.935620799888777,0.8232520070055602,-12.58420609425334;-1.890130965855883,2.9845352450037943,0.20926454642072656;-0.6202039792682545,7.7489148685796625,-11.35484325650015;-1.306585302611317,0.5007700340056993,-8.912869875041267;-5.509842716827386,0.08692415871930281,-5.237690732545897;-5.095798953448596,17.4111668665922,-10.904868509439954;-4.01319063171338,0.3540281521428531,-7.876294286039894;-1.470641618042776,-3.257344122671583,-12.364909202683211;-23.309600830078125,17.705230712890625,-5.847499847412109;10.755043095132017,10.540504115160362,5.266805603632569;-5.095604149490447,4.960484167364218,-14.861776129310691;-0.5215403668403518,-5.565723661264702,-13.339885127118606;
31.355292374246837,-60.74009087581173,-1.9856470926874064;30.648614271554433,0.288941610046451,-13.057815321030038;-8.715934858251787,8.042403484194516,-12.533697925339052;10.660938070617359,-6.835918743027729,14.359035942444814;3.7535057132513145,2.7022444330044566,-8.392484927822572;-2.9368016103291166,0.8235026352437479,-11.993606410148153;-1.89534927100031,2.9844741497115574,0.45570734975658667;-0.6191848599902388,7.934828976627678,-9.978275777898748;-1.3049362783636638,0.5005259500566619,-8.115238906784327;-5.460088271029893,0.08255781992951317,-4.724588218450389;-5.1026958561867835,17.36890601892559,-10.454074603771417;-4.001026754078254,0.35262358308536523,-7.337517224636642;-1.4572042802082081,-3.2600909503228666,-12.1861787024651;-23.309600830078125,17.705230712890625,-5.847499847412109;10.804412657023367,10.301027228439938,6.165955913171274;-5.098800741411354,4.961585212788913,-14.939699183983478;-0.5140743727057068,-5.567461858879967,-13.172301060763882;
31.559130630743752,-60.749508368307566,-2.528616705827112;30.579482817363925,-0.26742248375406863,-13.34121194246287;-8.816366549697443,8.063605209659666,-11.03587929711236;10.79174976011978,-6.799851371267638,15.984280202603903;3.77429066188369,2.293104704159351,-9.781900570260898;-2.9353069574981854,0.8231730985768047,-12.755497677888876;-1.89600129607501,2.9844701683486687,0.48630860778855123;-0.6249046690857901,7.723234293691937,-10.697443144430569;-1.30581044754831,0.5006537550917239,-8.539493383132992;-5.458837520141127,0.08245654403402192,-4.711771644037086;-5.09656767103068,17.405249348365643,-10.864400407647562;-4.000304827032621,0.35252334738171076,-7.303543995267404;-1.4800481620066674,-3.2551120063634964,-12.492834260992776;-23.309600830078125,17.705230712890625,-5.847499847412109;10.845438772650294,10.257356979405813,7.003032013663159;-5.076010829093288,4.95559182024033,-14.416923621987046;-0.5008448784577642,-5.570512120736139,-12.875447910841928;
31.870229979805167,-60.76592963833845,-3.3561876628660823;30.28452754269135,-2.440043822688068,-14.441806563081288;-8.795591171181469,8.059402704995478,-11.345799319653555;10.747576571264378,-6.812582447658736,15.433774446965916;3.7972805937075336,2.568829187656858,-10.036517325898714;-2.9365308600144346,0.8234521135648092,-12.116821757710497;-1.9043543915139494,2.9844026109022814,0.881455205713479;-0.6105338249013444,8.014808706547601,-10.912085258286261;-1.306145686972993,0.5006972545412637,-8.684034973460761;-5.436126087147313,0.08062692803561822,-4.477941951813349;-5.081625342325717,17.568486363603615,-11.258753163727974;-4.014238447828729,0.354123000450453,-7.922078736590365;-1.5365513485015274,-3.2423456512713926,-13.251078128238518;-23.309600830078125,17.705230712890625,-5.847499847412109;10.772864013802593,10.242309600497412,5.483428737527873;-5.09707922101889,4.960802214011933,-14.893583738975352;-0.5046552657080043,-5.569645798963572,-12.960373754060377;
31.622649935598076,-60.75315910048944,-2.698461595725888;30.373238934727425,-1.8153270945611002,-14.126341640917028;-8.779459345608196,8.056135392060927,-11.585490039644863;10.771550754386329,-6.805676175435669,15.732515862882359;3.7985153901172297,2.489465571478103,-10.213861157514913;-2.9365620565085475,0.8234508579786328,-12.120289453162087;-1.909522349455023,2.984280553396954,1.1269692773801694;-0.6141017538783292,7.943936192660101,-10.841701964755025;-1.3070499748138895,0.500843222206046,-9.132157884554601;-5.438599961310476,0.08082194355690886,-4.503649034322898;-5.085283567691743,17.4947604294188,-11.439406367673996;-4.01276565216131,0.35419662942198915,-7.867942149276388;-1.5591322382297403,-3.236791050085416,-13.556547065828205;-23.309600830078125,17.705230712890625,-5.847499847412109;10.755052478569844,10.283459388527286,5.121738194521392;-5.124208964552764,4.968533081618027,-15.52393751274046;-0.5289236692678685,-5.563923801807667,-13.504709480114087;
31.669288827934324,-60.75745100002685,-2.825739988689591;30.42325441386713,-1.4527828295302658,-13.942898599645082;-8.794327725001331,8.05923658525333,-11.3630636870692;10.79565221554649,-6.7987522096462,16.033312868334356;3.769649729174263,2.2042619883390437,-9.787721464333416;-2.936663626659366,0.8234813896615631,-12.062159402978097;-1.9143609583078967,2.984175934496852,1.3554531684426365;-0.6316590942637553,7.656662648547195,-9.999335500299992;-1.3064984604330747,0.5007521334716954,-8.852291740035383;-5.410003159443583,0.07863381168736971,-4.208981422687195;-5.096393722168759,17.391316086066166,-10.999427813080594;-4.003617723589992,0.35307129827295136,-7.461556607717014;-1.5349594232238775,-3.2424517608181573,-13.231675362861651;-23.309600830078125,17.705230712890625,-5.847499847412109;10.810461626925463,9.867853001969763,6.062060456685458;-5.082572479649915,4.957446679127252,-14.57097586553381;-0.5252402216657062,-5.56481115008795,-13.422728198276026;
32.01789131528381,-60.76997705989781,-3.7395923724144815;30.505724056765914,-0.8356871340209144,-13.629923234900977;-8.758475674885066,8.051522307159427,-11.899626620858498;10.84130162769867,-6.785148526323278,16.601746756720715;3.878999518378751,3.6986796140517058,-10.716496525351623;-2.935058041151608,0.8230237414586948,-12.900746542113737;-1.9120727165893683,2.9841685411386774,1.2490898811656166;-0.6142107326068256,8.118460639090802,-9.359090260525733;-1.3064951994366072,0.5007534614012626,-8.859131388382565;-5.404760638424313,0.0782411853573226,-4.1550164479478795;-5.076227912772655,17.638109981286995,-11.314310151146621;-4.0120212985033294,0.35357799329059225,-7.790784171997146;-1.5542595136575792,-3.238444663844616,-13.487018457617822;-23.309600830078125,17.705230712890625,-5.847499847412109;10.672840827860476,10.320385801543184,3.4658492727093915;-5.10537628091288,4.9626322640079135,-15.073252120018168;-0.5421636518795412,-5.560880673353129,-13.80139263365777;
42.25109921572544,-65.35320379914506,-35.56119343225342;29.94077161959689,-4.6793158200462734,-15.565356719275137;-6.806930584930783,6.99300136736804,-44.630431529123996;6.631923704654428,-6.050897918712497,-36.16993596192919;4.983094415944026,5.0339528150485515,-48.333191698913254;-2.845751292042292,0.7215107522195131,-84.4175964649499;-1.2524242538890824,2.8057603540630924,-31.51853608590578;-0.5773415134309845,6.213871160849078,-33.3795150401997;-1.3342101537013134,0.5086278794355651,-22.726877080987975;-6.028586886135662,0.1598440853412253,-10.62269052673004;-4.868745548212667,15.589399702087391,-60.02077093347592;-5.066086830354727,1.9699687468412774,-105.80694359494788;-3.913064054834519,-1.757695881532159,-50.68434162075383;-23.309600830078125,17.705230712890625,-5.847499847412109;8.043139261428069,4.8252533962783675,-68.69275453959429;-7.01051672400742,7.502418020245728,-90.86489568597018;-1.8749601803479952,-4.757575244620253,-48.337318476416;
41.014594060459075,-64.26852340004056,-30.940409908667018;30.160786503867673,-3.2766163380302586,-14.862912885194879;-6.7750071849183415,6.960825438095482,-45.28750865911308;6.149326863952653,-5.644620359120854,-43.644570986974614;4.974867385001963,3.215299316574762,-52.44931516105134;-2.8508985496740267,0.6741362746590378,-108.17103380959266;-0.9551995485118686,2.5484606603039017,-50.191148075539715;-0.47767947606519695,8.04886065941002,-37.05734314861259;-1.2888460634659271,0.49933469218742776,-0.33893505250894407;-4.994205251078375,0.06353205455507416,0.06361728718084692;-4.834912190920671,15.736074651858416,-65.31538565577226;-5.049615764601863,2.0237519957748855,-108.32289590944266;-4.012882812066159,-1.6307927160654616,-52.804468977756066;-23.309600830078125,17.705230712890625,-5.847499847412109;8.04033378240817,1.862745261613473,-68.47985996915561;-6.988320990295582,7.805852961349453,-97.60282683575636;-1.977299056568285,-4.635182436252661,-51.82615923086141;
40.91412765172817,-64.1940149038638,-30.587941795151714;30.143729496533073,-3.389929646897583,-14.919843922938973;-6.81921121864183,7.004770267816709,-44.38274050755107;6.039168453418689,-5.535669200625142,-45.478498282819885;4.907631917636014,1.2218253421876635,-54.526220112231414;-2.850822123276885,0.6745591700556772,-107.93732888457791;-0.8450651880131692,2.3929281210347195,-59.20975504841146;-0.4237255576633592,9.079401023248758,-38.662099482826555;-1.2880078914305841,0.4993295880359377,0.06301959313509542;-4.9513687667072155,0.06373513063375924,0.5029350944265047;-4.776546755678129,16.536462689145537,-66.12646639963111;-5.048131674609313,2.0264762491306136,-108.43414920979086;-4.053015858374968,-1.5765079998656213,-53.68985976291237;-23.309600830078125,17.705230712890625,-5.847499847412109;8.029612712423713,2.3953950661001375,-69.30836683468246;-6.971844371580701,7.909282901212935,-99.9064218183197;-1.9526313241423658,-4.665999151456941,-50.96285558009095;
40.43100521935223,-63.827885467206066,-28.87962650385051;30.040262175577713,-4.057979778208053,-15.254737419803599;-6.726929061438706,6.910929646756452,-46.29138182874759;5.864141461356601,-5.346995263375874,-48.523542611356454;4.871635476578154,0.22891552178885322,-55.53439433182494;-2.8508978448723816,0.6743665427404837,-108.04482773602804;-0.8206954782268963,2.3504354886827947,-61.526907958570185;-0.39284310146701606,9.665415806998137,-39.61470246246493;-1.2876977514604693,0.49933151857750435,0.1938931390595542;-4.97889608068849,0.06356181009807571,0.22059769075754332;-4.778767708349309,16.441616270501278,-67.20176447481572;-5.0482248711400945,2.027056242482622,-108.47054582141746;-4.1453065470553305,-1.4459884918790342,-55.791006328073024;-23.309600830078125,17.705230712890625,-5.847499847412109;8.033471781448466,2.467334076875395,-69.08857126644948;-6.959379720861223,7.978073211888708,-101.46282778595858;-1.9446183946872257,-4.675828922138568,-50.6851345489726;
40.15806610105389,-63.63337281792047,-27.93462151094844;30.014661649975526,-4.219724971836426,-15.335723399475356;-6.738355506472567,6.9229776054111545,-46.051474504724084;5.868422580333035,-5.351882632668637,-48.446526890265936;4.8753472810347,0.1411202368315454,-55.98652154098632;-2.850885170481154,0.6741870655636027,-108.14205635980628;-0.819279862227148,2.3477916935912138,-61.67147378430097;-0.3828361137181028,9.823131357620742,-40.26452868594569;-1.2876965837105485,0.49933289896218375,0.2215058117372024;-4.989238739010036,0.06353448109739013,0.11422122836415838;-4.797238748932011,16.197872399290766,-66.79477107329373;-5.048071440007062,2.028100066898551,-108.52396745014326;-4.185797831909696,-1.3853941803200065,-56.74893163725769;-23.309600830078125,17.705230712890625,-5.847499847412109;8.055576041504665,3.211764141066062,-67.9968304400856;-6.945709828320471,8.043193134678809,-102.94176702535407;-1.928726095114869,-4.695169196427793,-50.13815825952748;
40.186310276738354,-63.65517181038595,-28.035114194022718;30.033840688958268,-4.0990686450448575,-15.275344729606838;-6.773318783327273,6.958831663096238,-45.32442044938521;5.759432538678849,-5.223739455915836,-50.43654353703813;4.874179893526342,0.8965372482900724,-53.74430191516536;-2.8509137202005568,0.6743138163125716,-108.06731685069913;-0.8105891379310312,2.3311318475785896,-62.556992741635455;-0.39959749753169466,9.533761327247252,-39.443722406946975;-1.2877029222200371,0.4993302687469454,0.2205027868416778;-4.997795643578821,0.06351287456048338,0.026802634334387676;-4.833324745532642,15.753225095347831,-65.42870093864812;-5.047636497481648,2.028107467360877,-108.51463158401884;-4.194127672527311,-1.3719676631195186,-56.954424570799354;-23.309600830078125,17.705230712890625,-5.847499847412109;8.073758234792761,2.657938004628692,-66.94136509570654;-6.942299845123953,8.054713138355421,-103.19302177769178;-1.9056082163173802,-4.722383031286973,-49.356818756283914;
39.94585057858609,-63.489833699058245,-27.212049035933894;29.951063363114976,-4.616056608238333,-15.533777913259875;-6.746715417620339,6.931564839222647,-45.87713190344116;5.6663349737176665,-5.106940553144519,-52.20284935901195;4.842228959170121,0.6527787052915732,-52.827989332700824;-2.850800295344822,0.674499944796419,-107.97444371822542;-0.8148334745769836,2.3394465388990584,-62.11571906237084;-0.3818370262114632,9.849827945734663,-40.20905008010619;-1.2877001725428299,0.4993314444666315,0.2192197101103659;-5.000967593676918,0.06351768608069452,-0.005686297628145098;-4.825955216021438,15.819861690386197,-66.10949208962242;-5.0478851808450065,2.0281368454776234,-108.5203706872683;-4.202863355986436,-1.3587704738568798,-57.16343538249354;-23.309600830078125,17.705230712890625,-5.847499847412109;8.05784718643853,2.7115571910738083,-67.79311774782494;-6.937373819984767,8.076935917586102,-103.70344959098738;-1.9107420464059865,-4.716424878118497,-49.52937386830863;
39.566513181270544,-63.242027883576945,-25.9340523704807;29.905075051940358,-4.8979428793231286,-15.674387578839054;-6.74594316000085,6.930949120870809,-45.89171248838585;5.642065868521229,-5.075477722454217,-52.673055873029185;4.811345683744921,-0.3843734073436087,-54.215509442987454;-2.850790666228974,0.6744194602008711,-108.02206929913734;-0.819869024885038,2.348936330397982,-61.61040365828245;-0.407475984534699,9.161415606879096,-41.565332438035995;-1.2876974349569779,0.4993331482341885,0.221314826463626;-4.992334867227193,0.06353384378370608,0.08285307957463317;-4.85003326980621,15.407360425986631,-67.09270190325435;-5.048090129128421,2.02851923516097,-108.54408052805795;-4.2012675418245635,-1.3617106278064863,-57.121216217222695;-23.309600830078125,17.705230712890625,-5.847499847412109;8.03106306691275,1.6359420333048158,-68.9127617789615;-6.9444505181871365,8.049768242835956,-103.09368511203002;-1.9344828333871877,-4.6882509551124665,-50.335602062267256;
39.52873200281002,-63.21991379835121,-25.810744828155862;29.946117191613652,-4.647235584337084,-15.54933131131897;-6.79619119896063,6.981892643846991,-44.85344623244872;5.636098594781787,-5.06709314764302,-52.793963560559;4.820561082712249,-0.3262064789897563,-54.52766984145172;-2.850920427016887,0.6742688374184974,-108.08972777738217;-0.8123911558432315,2.3346775168227496,-62.36749304629427;-0.40753052744225293,9.09388961520823,-42.281857518319;-1.2877018494798047,0.4993303162308078,0.2208736170026384;-4.9733576670336195,0.06357565197982673,0.2775598998624673;-4.863691409268328,15.230158521468748,-66.69741986274383;-5.047718685876725,2.02770885320626,-108.49572339419387;-4.232930340919509,-1.310927945882102,-57.9044075423151;-23.309600830078125,17.705230712890625,-5.847499847412109;8.030014138435867,2.381356433726199,-69.27749751122151;-6.935593848229026,8.081704363681894,-103.80481457294425;-1.9305081231049204,-4.692909627139085,-50.20107948161832;
39.36711212687129,-63.11950933291007,-25.27411231177234;29.77060923195729,-5.701233245407288,-16.074098510692473;-6.738739532422864,6.923133447521885,-46.045107519070896;5.561355037478842,-4.965491534575635,-54.28596609497508;4.831668784939856,0.018298500951731356,-54.09485096989333;-2.8506845857557854,0.6750026979760485,-107.71009517274564;-0.8119210580997059,2.3337687728487326,-62.417029551539414;-0.4335687144958879,8.356826115176169,-44.094651336526624;-1.2878276265012958,0.4993306691281278,0.14680443587522518;-4.919429257727161,0.06410489219847237,0.8311651987680335;-4.848740056767929,15.393864017118489,-67.68663369932256;-5.047686108186879,2.0278788857311234,-108.50610892747957;-4.210590634854608,-1.3464232202116584,-57.35429231567016;-23.309600830078125,17.705230712890625,-5.847499847412109;8.014585236467566,2.0982222633027376,-70.08442499296147;-6.932685482625465,8.09410420823149,-104.08998562089846;-1.9342588581641014,-4.688428568435501,-50.32814342969964;
38.14117770438166,-62.47430079016312,-21.374552945399977;29.64901734550242,-6.4001765287479415,-16.42042312996376;-7.808177487822918,7.692193945449238,-26.778142746132975;6.4369632499049345,-5.836031190107999,-39.57378135565017;4.237655044668836,1.8954849893857109,-27.06521630977545;-2.8609184352065067,0.7372176148776456,-74.99089266983856;-0.9414593626292593,2.5043813545391425,-52.24289568649806;-0.4371315724942923,9.12127307854826,-35.35027176809655;-1.2883122286447126,0.4993327787033929,-0.09691203697943251;-5.0369182121785,0.06369792766636628,-0.3750475936645188;-4.974482991500758,16.330012503607353,-38.04279668792111;-4.920812950137018,1.3376945532379763,-75.43823471341588;-3.6156155409432804,-1.9914750497249918,-45.76265570346186;-23.309600830078125,17.705230712890625,-5.847499847412109;8.225576274899279,2.1010642002235174,-60.56212358228426;-6.97451421258186,7.468838312060809,-90.20970466694125;-1.842131381622417,-4.792333181216718,-47.2947816103158;
29.86730638521431,-60.74159886026962,1.9385825183389827;31.11209899116281,4.7042930063918185,-10.790680300799309;-8.599216201751592,8.01396106480605,-14.28660031199724;9.686182410250325,-6.982333124670675,2.5425466479978702;3.5260118644047695,0.9573332586942431,-4.218668505731827;-2.922528229626002,0.8194389204079268,-19.35377062488682;-1.5935899805551803,2.9485306174540495,-13.959856884396913;-0.691784547881086,5.433254033108099,-17.478025207736565;-1.2898909186024963,0.4993428905753132,-0.8448343422637521;-5.084493150287251,0.06414585621342495,-0.8631895545974686;-5.10809134873575,17.087425655769287,-12.124018915154437;-4.075886441585911,0.36545481103210187,-10.777839684567297;-1.1721131151628277,-3.3110974777397497,-8.3934151146794;-23.309600830078125,17.705230712890625,-5.847499847412109;10.867050229791579,14.05611106902196,9.927864115808191;-5.258259527211946,5.010783894990093,-18.65881044805832;-0.3438757224388378,-5.601149093208109,-9.381577637049737;
30.33988646122346,-60.72663814546134,0.6999115341312176;30.631116674944817,0.14381040326539818,-13.13188706012653;-8.26129166064492,7.91069976048654,-19.439718083821646;10.149092839539911,-6.9391674702738175,8.105620841818457;3.6739388668505497,0.48593951173744543,-9.812558337765154;-2.927504791957983,0.8211097800232979,-16.741545004791448;-1.6879051385379518,2.9681887758380014,-9.399840356156261;-0.6673327439190775,6.017961590353103,-17.149155331349817;-1.296123383444106,0.4995992257123733,-3.849729794147791;-5.129657744420703,0.06501479069698446,-1.3268011435948353;-5.054058153962869,17.68910598520808,-13.47706042738072;-4.0024509164908615,0.3529504798864851,-7.4067756350938225;-1.0707948956014377,-3.3254366908655775,-7.049307713447533;-23.309600830078125,17.705230712890625,-5.847499847412109;10.889168639523907,12.947556723174626,9.577723845038399;-5.029712724924412,4.944300838752534,-13.362402044481314;-0.22599758755750043,-5.618069959032648,-6.77787131333249;
29.80641965896624,-60.740219724939195,2.1015986254623655;30.80390872201063,1.6095447382445691,-12.38312899963727;-8.173174760160991,7.878077806361532,-20.8080371154794;10.503041947745347,-6.874442820631173,12.414696091137818;3.7002843052793146,-0.8703872308515139,-13.187686366806524;-2.93190052555841,0.8223892982010236,-14.45594376501056;-1.7446530110152532,2.976390292072262,-6.68479411255089;-0.7012195980203781,5.355695321379661,-16.34199546913193;-1.2982592587514532,0.4997659604685549,-4.885421656085029;-5.1527391553493676,0.06562241379448652,-1.5640053524290565;-5.128431174145413,16.672078068396225,-13.107822584971544;-3.992181834384793,0.3509973991213846,-6.912191845610707;-1.0728061825590234,-3.325711971646286,-7.072115223864429;-23.309600830078125,17.705230712890625,-5.847499847412109;11.093961090183488,11.687484548770042,13.08750070834352;-4.908453103268386,4.91764695238505,-10.594015677402282;-0.18029255345371276,-5.6232804320872125,-5.771449077426304;
30.75687246720057,-60.72530865635638,-0.3990696536529228;30.592329218175227,-0.16636719449173043,-13.289863430554815;-8.077448764112122,7.8398814366564515,-22.309044265081972;10.56167509883613,-6.860604386054025,13.133969363704669;3.7421103989848676,-0.4930486899520785,-13.83451647649331;-2.9339578212051105,0.8228491447582472,-13.442527522185557;-1.7644656027439294,2.978394909849738,-5.744525200060721;-0.6993575492255659,5.520513781259143,-15.31145640243782;-1.2986681094618853,0.49979699298964714,-5.072499512836458;-5.169935200277038,0.0660960024210433,-1.7406269485861046;-5.166900398212036,16.311634898287338,-11.529488074049667;-3.986127667140875,0.3508699606190413,-6.666729104854838;-1.0874927755802242,-3.3233919081096395,-7.26970756048847;-23.309600830078125,17.705230712890625,-5.847499847412109;10.976493813127824,11.08295870486031,10.220887892853113;-4.948338276991269,4.9262027640387505,-11.510996038994449;-0.2028869597048939,-5.6207387020107635,-6.268864306298532;
30.89582316891047,-60.72693637451581,-0.7663485607514602;30.710790950157335,0.8013753779393689,-12.796430070382232;-8.127576830746968,7.860243286388106,-21.521538231963838;10.605584498808804,-6.849968265434409,13.67494787558767;3.711375510689068,-0.3103206629916455,-12.494359295740807;-2.9374618285628267,0.8236340469553218,-11.659425554846806;-1.7868947658056222,2.980446339705116,-4.680908352026549;-0.6705516251446488,6.261860917510024,-14.480935922953392;-1.298704232111476,0.4997991305517449,-5.08539695046214;-5.174561316011129,0.06623675963000597,-1.7879690309438416;-5.132401940272405,16.84846707457757,-11.231570115180638;-3.9816707716040893,0.35032214990190846,-6.4628213211204155;-1.0961170190260061,-3.322308796154303,-7.38336246669693;-23.309600830078125,17.705230712890625,-5.847499847412109;10.963234838990484,10.561246924912295,9.645918100872166;-4.929442069757021,4.92237540224923,-11.082180123995414;-0.19826946711629723,-5.621224364820888,-6.168846109157059;
30.51603736568488,-60.72389688711106,0.23764445548594892;30.847748510641267,2.005160242347145,-12.180421319824063;-8.175258753105336,7.8788585683333,-20.77605851988435;10.602103698101969,-6.850971983455086,13.632596731545739;3.7594078670675675,-0.3576381846099883,-14.141800409942405;-2.9369697265015917,0.8235591601679164,-11.890628745144369;-1.788326445029071,2.9806586839597364,-4.60972291476898;-0.6657251615292514,6.32661832914032,-14.837421632306864;-1.3000062921065223,0.49992771810086883,-5.724906566596616;-5.183884730479995,0.06656563243787961,-1.8835825473916898;-5.108846296122482,17.110817380484,-11.840914535068592;-3.9900542535091885,0.35096044277772553,-6.824842947381526;-1.1437997173966519,-3.3161400061351642,-8.012092432425021;-23.309600830078125,17.705230712890625,-5.847499847412109;10.956043020879818,10.009753040165114,9.20721436590388;-4.915739980091673,4.919308889201947,-10.76470587844446;-0.1907613699355477,-5.622114126189358,-6.001746715473672;
30.58135885987105,-60.72449072814621,0.06433478008359472;30.875005594038278,2.2572712574217455,-12.051094480515307;-8.171064554411615,7.877263600262582,-20.84140941859439;10.619876096454943,-6.846425251001327,13.851448534102964;3.74932156821376,-0.3812106529559207,-13.858256943076206;-2.938638443087022,0.8238784153592223,-11.056868706869025;-1.8004654280820862,2.9815018053275044,-4.036085382705778;-0.6806421670907655,6.103086844248884,-13.9230350254294;-1.2998475984802946,0.49990867992570176,-5.645966490065675;-5.1969470564298295,0.06698640379562626,-2.017763953021948;-5.152512899439981,16.5551341674481,-11.255823362467183;-3.9844344278350614,0.3505668303505116,-6.584883325472077;-1.156305278470386,-3.314134773544125,-8.179065813974702;-23.309600830078125,17.705230712890625,-5.847499847412109;10.981446152812282,9.769370540019498,9.618103402712308;-4.898587194795385,4.916412395364622,-10.382976092130107;-0.19402766431314156,-5.621716255925507,-6.07499764078274;
31.106844490921482,-60.73138562630507,-1.3252892102339722;30.89687148590796,2.463586262765368,-11.945156598880331;-8.284048611366106,7.918741808426185,-19.08766379731403;10.764884261180478,-6.80757674892484,15.649232064988837;3.7428430345353036,-0.08556072570353912,-13.09389069667828;-2.93923500173676,0.8239895081388038,-10.75983546359528;-1.8241453656203728,2.9829300637381215,-2.9125823988443216;-0.6711266294096586,6.359712927064575,-13.546002421524634;-1.2990024065801422,0.4998282956615925,-5.242557736741546;-5.214949174003391,0.06764476076510961,-2.202783574451793;-5.138849636069083,16.8534073710648,-10.442351043494895;-3.985073179316,0.35067886276724725,-6.615389624747692;-1.175365044538279,-3.31132597605222,-8.431508213042612;-23.309600830078125,17.705230712890625,-5.847499847412109;10.939790681746874,9.99324714989084,8.851058202413498;-4.899313600748302,4.9166009130979855,-10.401070080913499;-0.1932053752732945,-5.621787801131493,-6.0562175508094;
31.21972303480773,-60.734024549124086,-1.6237013234258697;30.945564985011206,2.9339254634534733,-11.703462242723983;-8.198000011938817,7.8874707175612295,-20.422036934823968;10.7290063635676,-6.817737403835889,15.203260874261048;3.754039199041127,0.15269243953836664,-13.013423291802326;-2.9389445193467854,0.8239459960157561,-10.910223188433207;-1.8414628178560712,2.9837507887831842,-2.093104992667051;-0.6635515523335276,6.562862233661326,-13.249674899139194;-1.2983941544382653,0.4997760689464298,-4.940692082446617;-5.222728055684466,0.06798629592725636,-2.282437166990121;-5.133050778157536,16.956524947870157,-10.282249367849815;-3.9811891255025103,0.35001052283922673,-6.428547208126588;-1.182260394601029,-3.3105093491548256,-8.521786662393865;-23.309600830078125,17.705230712890625,-5.847499847412109;11.006193958602204,9.830971998173018,10.175009775836557;-4.9017676922781845,4.916772932294294,-10.450485452404948;-0.1969520239694451,-5.62143611473404,-6.138726012628268;
31.089368056634573,-60.73065106952927,-1.278538504263551;30.987310515330233,3.351124366754476,-11.488808006061419;-8.232468456081893,7.900282917576069,-19.88643692446895;10.802837601944386,-6.796641077827228,16.12260508635302;3.749404963304076,-0.2004842343985267,-13.521756574661765;-2.936690081647714,0.8234824453251189,-12.04117904794424;-1.8406528772326867,2.983679785773582,-2.1315894539217197;-0.6742426640924882,6.3238737634749365,-13.259257407978751;-1.2990963442077137,0.49983676300214575,-5.281297137497404;-5.244885413114201,0.06889108989809145,-2.509949515619546;-5.148271559670138,16.708860766786337,-10.51490661002078;-3.9838951536740588,0.35046162074965914,-6.557571434578676;-1.1964016146122418,-3.3082494796306223,-8.709865016733843;-23.309600830078125,17.705230712890625,-5.847499847412109;10.987846122501317,9.221240456075087,9.49193058772265;-4.93417256158886,4.923181621666095,-11.187408563921423;-0.20252015345184615,-5.6207526398108625,-6.260681533010327;
31.063938199496086,-60.730205641176916,-1.2115469625420339;31.003687245185315,3.518885540488295,-11.402443876795045;-8.20176783774922,7.88893314876867,-20.362736115117773;10.768174358916767,-6.806642842741887,15.690299076351646;3.740141632105146,0.044597417793631244,-12.76377242825864;-2.9375433710123424,0.8236523980630119,-11.62284803652139;-1.8565677973582935,2.984149425961295,-1.379111489765279;-0.6571541090519815,6.691715034749892,-13.356783798039238;-1.299078346616834,0.4998334019526609,-5.271245420926903;-5.248006746465666,0.06901493435593231,-2.5425145530723015;-5.157064310161566,16.652574871850344,-9.94516752017011;-3.9850192729171727,0.35065047608492095,-6.6122313215797135;-1.213466522510167,-3.305543273435448,-8.936742281196139;-23.309600830078125,17.705230712890625,-5.847499847412109;10.93895042110362,8.905487841596848,8.31773048663294;-4.974494604974124,4.931577300048282,-12.101206453395747;-0.2106887527317256,-5.619852958875705,-6.441765692421498;
31.417611203574463,-60.74178536960374,-2.149972408572726;31.005594140862605,3.5385749523470693,-11.392298093274688;-8.24790463114216,7.905901005257411,-19.64669968617995;10.77372854909698,-6.805121777472818,15.759636060840158;3.759302890787969,0.13176205054685575,-13.223153498925662;-2.937355988960305,0.8236286514390945,-11.70414397992866;-1.8637931742552554,2.9843489408854107,-1.0363102556114256;-0.6579371562309332,6.695521957496442,-13.18924297118049;-1.2989984617614656,0.4998294092435725,-5.229369705459604;-5.265570609720099,0.06986841484131512,-2.7226781030641334;-5.172128303489388,16.432033999008194,-9.967920295241065;-3.9878681280148545,0.35083118602826735,-6.733094853873936;-1.2149272944427505,-3.3054363546804786,-8.95538942507077;-23.309600830078125,17.705230712890625,-5.847499847412109;10.923890960811079,8.860088379322747,7.9843632378707525;-4.955556212766583,4.92738637090366,-11.667974408410316;-0.19871257455250335,-5.621241425484067,-6.177518350968768;
31.47798555898008,-60.744822626286286,-2.311238231168673;31.065126248014895,4.169292074034367,-11.067127858788181;-8.324718247996678,7.932697442091901,-18.461708210330784;10.89437437344123,-6.768646511434979,17.26900072813061;3.795163996499707,0.17331305547459053,-14.31144036510073;-2.9366231606452216,0.8234704014213837,-12.072437649993802;-1.8809233361571116,2.984514663686821,-0.22680182742679733;-0.6484932611327832,6.799337260414651,-14.078230052379858;-1.298727187058651,0.4998043845736748,-5.107864444711495;-5.267120321371719,0.06992041631288481,-2.7389179445837897;-5.140410285233072,16.783243653270315,-10.825124856755593;-3.991466814814974,0.3513373788779326,-6.898778276557266;-1.2385906999369976,-3.30157539018529,-9.269450542720747;-23.309600830078125,17.705230712890625,-5.847499847412109;10.911853775318814,9.393082628932603,7.970511909489204;-4.988130713771971,4.934458882304977,-12.409378072357754;-0.1994441162504672,-5.621124768348159,-6.193515176541695;
31.53050512015881,-60.74763552649897,-2.451647186687186;31.07431085669962,4.269824057448755,-11.015233671477285;-8.36600017590937,7.946354760679947,-17.82781194049378;10.854287665161852,-6.781192482180984,16.76609794958928;3.7889849682887964,0.24493695974478147,-13.976702570733565;-2.9364913149835945,0.8234419055351323,-12.130747133650829;-1.887303610668806,2.9845037138867165,0.07563420730802761;-0.6490818108478393,6.872046277794762,-13.352234407324346;-1.299053696485757,0.4998304031055647,-5.2577459314909305;-5.288995839703844,0.07098747257673965,-2.9636925330370048;-5.1516219018824465,16.710568233048267,-10.110734044279035;-3.9871248050188877,0.3508817075470896,-6.707994471652071;-1.259152682835265,-3.298072168825512,-9.543213340351244;-23.309600830078125,17.705230712890625,-5.847499847412109;10.90187141171349,9.133742542125928,7.639512484104074;-5.0242486771517605,4.942799256337526,-13.233932537367664;-0.20564936556699487,-5.620457096142456,-6.329746111534433;
31.00477239121092,-60.72830280766916,-1.0538675999786449;31.084585549688978,4.383343315041955,-10.956632740847695;-8.3452042528189,7.939553253211065,-18.146720724661428;10.755471696555414,-6.810308723243233,15.532218468486167;3.809310573295011,0.36055285436067663,-14.42362942861265;-2.936876095516695,0.8235322153981928,-11.932960667591004;-1.90073149288709,2.984446473180944,0.7110001122459266;-0.6468710098045083,6.851090849715354,-13.9425484368996;-1.2994095915312267,0.4998685072444153,-5.432025930357881;-5.275535969139743,0.07035558007186626,-2.825225116975659;-5.147264378702556,16.69364819364842,-10.754898475754047;-3.9860950790040217,0.350654998003902,-6.655329176840297;-1.2674841927960507,-3.296799867995018,-9.653198414002546;-23.309600830078125,17.705230712890625,-5.847499847412109;11.010832688372405,9.122162196832985,9.934162714923545;-4.985305107551566,4.933771904621313,-12.343859940276317;-0.19303109698643128,-5.621884176971861,-6.052995413440733;
31.249170720324543,-60.73541900014346,-1.7024918127769837;31.061469892146995,4.129529654096171,-11.087611447468984;-8.335868664499053,7.936454627616678,-18.289899811204798;10.796609950570891,-6.798458776812184,16.04486391783087;3.8073762066567167,0.3574496065921329,-14.366306274997498;-2.938324271477431,0.8238204860808129,-11.216091205229972;-1.913417729579672,2.9842094980844296,1.3116690696063245;-0.6381898211210427,7.110175898029807,-13.379147980454334;-1.2994517007914916,0.4998680303906837,-5.4379104055606575;-5.277377618726698,0.0704290687046556,-2.8444250979016417;-5.140702707372508,16.851239174740194,-10.242900407838363;-3.9857536266656766,0.35065257278367845,-6.641521556046428;-1.2693391825900178,-3.296429374581292,-9.677964126236972;-23.309600830078125,17.705230712890625,-5.847499847412109;10.936467782814423,9.081957834261424,8.345761097268948;-5.032763476578891,4.944720936013702,-13.425338794768564;-0.19335616283494028,-5.6217936576959975,-6.059944939780841;
31.468918444181778,-60.74467257310554,-2.2874582892717825;31.138015924669165,4.991303694549339,-10.642517116770911;-8.40704439165702,7.959473638472929,-17.199756860935146;10.91172068872812,-6.763176266343764,17.48704772425324;3.805959139544567,0.8030279233204833,-13.495931030305343;-2.9394705213731998,0.8240433659948517,-10.624500677270703;-1.9209685723778116,2.983995760555891,1.669536590734296;-0.6320948991132928,7.284756523399873,-13.043648531986356;-1.299154132006754,0.4998385880453358,-5.302829364180553;-5.278084728896508,0.07042270654368643,-2.851343783897491;-5.151004568072475,16.74395223424873,-9.914020161320686;-3.983921168532575,0.3504858171520926,-6.5608977090795975;-1.2571748795413176,-3.2984656741194414,-9.516535097399398;-23.309600830078125,17.705230712890625,-5.847499847412109;10.980981648850042,9.24681537844923,9.357758218141171;-5.005114628219792,4.938332727717138,-12.7967647120838;-0.18217782002754612,-5.622957124918402,-5.814497996700737;
31.254044129995037,-60.73546213408755,-1.7152415246605557;31.195793941514104,5.691184689766468,-10.28026988757776;-8.318446822379432,7.930589292694,-18.557662443628878;10.874018323877852,-6.775078179692658,17.013498159753073;3.8035934356416603,0.7096450075679401,-13.591558354214996;-2.9367915989568294,0.8235040730191738,-11.996649281623263;-1.9163475601544793,2.9841453317406623,1.4487446740935326;-0.6400483725135536,7.163793873183975,-12.582165192700543;-1.2994824785723493,0.49987456809695646,-5.463451723570188;-5.292511373245677,0.07122611797615885,-3.000378101706339;-5.156285109572025,16.706600591617565,-9.60393994601727;-3.991429900222009,0.35130907978713855,-6.896335856890161;-1.2758014254743033,-3.2953643736819984,-9.763723101154078;-23.309600830078125,17.705230712890625,-5.847499847412109;10.970841434559357,8.787897803545853,8.941584157244066;-4.989713499893368,4.934768763722156,-12.444650722823255;-0.1635534626895423,-5.624814870173053,-5.4052688604663786;
31.564024775980005,-60.74906518627975,-2.5405020384920007;31.124775074418427,4.838138673029494,-10.721633465953449;-8.406048762807666,7.959152482210977,-17.215219426466607;10.908179759565227,-6.764275657585541,17.442557062113867;3.8011405018241433,0.6583037882647274,-13.606284644396503;-2.936600732239504,0.8234612858651332,-12.096275952385298;-1.9195224542808265,2.9840552568451995,1.5997938992211544;-0.6354885003951618,7.193808692182719,-13.173964970413891;-1.299951790942318,0.4999160217141682,-5.673432826652558;-5.293948698897038,0.07128608182032359,-3.0144026200613823;-5.1464332384093,16.782667461861003,-10.131702145371925;-3.9948344926084083,0.35174506775218584,-7.052069365194669;-1.293289675153317,-3.292278630107673,-9.996666506249618;-23.309600830078125,17.705230712890625,-5.847499847412109;10.956553123103443,8.68220343045108,8.594465881402222;-5.008410062102891,4.939015151574302,-12.870419105192695;-0.1611360508458448,-5.625056766815515,-5.352438001712905;
32.15558663425567,-60.78986453722756,-4.125105990806215;31.27583102833305,6.746919832956705,-9.732813421047645;-8.466285078873273,7.977489044186535,-16.29747345257224;10.92270550047069,-6.75965431817858,17.625300300083346;3.8253835632293476,1.1137726610199783,-13.556998915211729;-2.935629947098945,0.8232446365815935,-12.591188867557392;-1.9237864923813772,2.983917956519682,1.7999961521484806;-0.625256470253146,7.4017389444830926,-13.337390750759148;-1.3004016714924052,0.4999606577572554,-5.904973885003642;-5.303022297440165,0.07171744840203909,-3.1076065049186568;-5.143831552399336,16.771693637556442,-10.52122461571335;-3.994592467270732,0.351745752935785,-7.043238733590684;-1.3022671038641906,-3.290634108565985,-10.116316462216062;-23.309600830078125,17.705230712890625,-5.847499847412109;10.917608094450635,8.538648183053784,7.712846602718777;-5.0545017010624065,4.950092943017827,-13.923599026289338;-0.16996005773573164,-5.624127321263405,-5.546049735701764;
32.29012715654609,-60.8015868896656,-4.48684897837774;31.20125218883532,5.759300448600772,-10.245011725623211;-8.373387408979863,7.948780422782816,-17.714027952193582;10.85082868308784,-6.7822081796955445,16.722766810025835;3.8440903802786885,1.2218944127265257,-13.967815205810282;-2.9362204679341386,0.8233866151973469,-12.271803703078987;-1.9239541776165285,2.9839240688142485,1.8092237538814402;-0.6172937923939787,7.574274223146651,-13.375439696856574;-1.3003824809159468,0.4999646228192213,-5.901142954005664;-5.309350022409623,0.07213641372275825,-3.173317109799754;-5.160044345284546,16.57586680179238,-10.215771253287073;-3.9891386029301317,0.35104998615212546,-6.793948806596177;-1.2839679085889975,-3.2939240620757055,-9.872459680366056;-23.309600830078125,17.705230712890625,-5.847499847412109;10.901316628533511,8.677909680534178,7.430402504157378;-5.046904732074896,4.9481451245404555,-13.748576060044527;-0.15713650691714087,-5.625411786309546,-5.264274852944169;
32.05002244243083,-60.78088398652466,-3.8409171148052295;31.200353762338967,5.747889600651078,-10.250878049157851;-8.40930483996057,7.960171775812281,-17.165378649505787;10.808991544510523,-6.794791872778634,16.19946565758499;3.861786438804652,1.1616030240356796,-14.654722358284985;-2.9365823840771506,0.8234615038327137,-12.095403779692148;-1.9245650886250374,2.983903594836173,1.836958709405664;-0.61229633046704,7.584680203811229,-14.213967003012108;-1.2999138329530107,0.4999174516258963,-5.676961175545557;-5.310737615343643,0.07221300619457516,-3.187591430224721;-5.157861256159646,16.600057877843497,-10.273267645178379;-3.9927242500014493,0.3514882885354198,-6.956114080150954;-1.2726878419859613,-3.2958831619815108,-9.721967039494928;-23.309600830078125,17.705230712890625,-5.847499847412109;10.958288230669877,8.6355500895114,8.611488593869446;-5.029690843422925,4.94397858817433,-13.355059270668136;-0.14348019432164127,-5.626609196172644,-4.965795801393682;
32.075020418988785,-60.783094026402274,-3.9084741996001284;31.16271668537817,5.284350962769718,-10.49090337446346;-8.364492761502094,7.9458984833963555,-17.85047541003218;10.803585723183986,-6.796464113678249,16.131952666459668;3.8584281717467244,1.5526549432303707,-13.831181294591609;-2.9362512024924046,0.8233904502186512,-12.25784852596388;-1.9271056030165807,2.983813868718617,1.9579864414194077;-0.6009738298951046,7.809537636182583,-14.43399693073544;-1.299310775776474,0.49985458616577844,-5.389810897872152;-5.3066644107457694,0.0719091946513255,-3.1452934994192034;-5.132954498676126,16.91862942851557,-10.59784507802565;-3.9902805525041334,0.35119815478406635,-6.8468703726084925;-1.266304280059651,-3.296959260446924,-9.637350063920366;-23.309600830078125,17.705230712890625,-5.847499847412109;10.93113192633822,8.762630341668078,8.091982636467286;-5.027814139072843,4.943589447955395,-13.313830334605257;-0.13739791969837079,-5.627114071507154,-4.831804255205569;
32.014001842870684,-60.7780917453576,-3.744258942492177;31.155140414617897,5.193978278371603,-10.53769931685717;-8.306810222164714,7.926612843533132,-18.73703760238983;10.771765797886136,-6.8056517882299294,15.735103789237105;3.864532346235792,1.68021900831965,-13.79872516004572;-2.9364991404673444,0.8234374295381761,-12.151519960296014;-1.9281463018846323,2.9837812949598184,2.007409959739249;-0.5984711904295316,7.927057240204889,-13.901647027081843;-1.3000193711533914,0.49992627920894733,-5.720679183311617;-5.3318595557998325,0.07343016407833458,-3.404420662165329;-5.12772501383859,17.010012624905166,-10.466221240756546;-3.990287398903332,0.35119652324632833,-6.845754806914329;-1.2696346215597103,-3.2963986499215236,-9.68188791214174;-23.309600830078125,17.705230712890625,-5.847499847412109;10.907644851866213,9.210947920775471,7.797931291752974;-5.020210527782206,4.941755607093024,-13.140004753610299;-0.1420598704580338,-5.626719815580254,-4.933548449848274;
31.95879370085168,-60.773899587316265,-3.596118760972516;31.17476814496101,5.431046202746769,-10.41499254519434;-8.337546196933765,7.937011741524957,-18.264329850618164;10.860739607039754,-6.779140040970319,16.84695301886511;3.9120157722237123,1.8490499799894495,-15.040372047359448;-2.9356170344725445,0.8232513926097633,-12.580936424356594;-1.9307590180285952,2.983684564680389,2.131311320772113;-0.5797103443464996,8.242501666027913,-14.744089013131784;-1.3000614886089485,0.4999321685142482,-5.744140479994655;-5.338878633904437,0.07387043681880412,-3.4767131266584244;-5.096582272755576,17.39074627490595,-10.981786241860299;-3.9945528752733557,0.3517222150954924,-7.03785236358182;-1.2826200666909315,-3.2941384098397077,-9.854436170692821;-23.309600830078125,17.705230712890625,-5.847499847412109;10.906433795965881,9.315113754414114,7.8208463078399575;-5.006153678347605,4.938487336100707,-12.818583572810184;-0.14878905485127136,-5.626129009669063,-5.081252162467848;
31.954723887995005,-60.77376592226586,-3.5855563558970474;31.172733221912537,5.405611229456898,-10.428168759968752;-8.306825519050486,7.926620425121654,-18.736919006807568;10.891745883264495,-6.769581338475799,17.235994921945213;3.8767875416596826,1.7400871020773039,-14.088530623103779;-2.935934547423803,0.8233254483720962,-12.410505705230506;-1.9396387682379301,2.9833258190438805,2.5522901672455163;-0.5932233228421246,7.8947651525521465,-15.162151040245888;-1.3001552534290637,0.4999354459749624,-5.790222127840636;-5.326872264788257,0.073047451620321,-3.3527328062607396;-5.115736951395381,17.11948894340201,-10.965043717371351;-3.9922352737761546,0.3514153183049471,-6.9356600527710555;-1.2819614602728548,-3.294268577227476,-9.84578076159044;-23.309600830078125,17.705230712890625,-5.847499847412109;10.924237733414671,9.291998642611242,8.182907455027731;-4.995969953585185,4.936222336643392,-12.587978541323722;-0.16304894758210198,-5.624790092144917,-5.39403081212572;
31.59832060389763,-60.75087106097446,-2.6319863968496406;31.19812817591729,5.719798225961245,-10.265441227620425;-8.324308993288774,7.932558704551748,-18.468369795841696;10.909333785893573,-6.763878888197476,17.457055033369837;3.881899729951562,1.785457511103317,-14.173250208052728;-2.9352999413311163,0.8231829261868204,-12.735135387569855;-1.9379275254548736,2.983397115177764,2.469776547172785;-0.5874446348601584,8.062586072713536,-14.82871493377818;-1.3007199426111495,0.4999991959075948,-6.063798754262137;-5.344336470021055,0.07418561689947323,-3.5329412386305776;-5.089931499317107,17.477621562521858,-11.043578641741817;-4.001510678590757,0.3526060336006196,-7.354660861264378;-1.3115680592407788,-3.289033872133527,-10.239887992128367;-23.309600830078125,17.705230712890625,-5.847499847412109;10.860298542287985,9.177099990052877,6.787645160957695;-5.03073765011121,4.94424505947579,-13.379437028696415;-0.18127773219573062,-5.6230486660594785,-5.79453250832163;
31.94128461790404,-60.772694628323634,-3.5492374285644246;31.113150785759245,4.7044565982289335,-10.790793391559601;-8.23770239180119,7.902186387905898,-19.80499112751938;10.827764845193684,-6.789133238934304,16.434083182139275;3.8740743561351336,1.8337037639317444,-13.831523090109172;-2.9355834941499257,0.8232442686042112,-12.595429658403177;-1.9362889900367615,2.9834573333000614,2.3946272223329004;-0.5870448578000165,8.051034913218551,-14.99347512208157;-1.300570160737054,0.49998545726553456,-5.990122241590349;-5.328056949481049,0.07324304498298284,-3.365339533526722;-5.097538223234685,17.367301123232203,-11.064828062337686;-3.992899694328063,0.351548474941054,-6.965280662665592;-1.2948220348097066,-3.291944961900459,-10.017133473678442;-23.309600830078125,17.705230712890625,-5.847499847412109;10.803221515956524,9.171584792571055,5.589113804967546;-5.042733923747065,4.947143434375062,-13.653966668302722;-0.18603033722087114,-5.622569283677703,-5.898020224374093;
32.16054210692847,-60.790104000585636,-4.13818073501707;31.084623096809786,4.383631467191185,-10.956493632953148;-8.37898256249024,7.9505662259616425,-17.628994180174267;10.840872210857153,-6.7853799910359545,16.598073534563316;3.9003301463070637,1.6918562299351745,-14.943627735153058;-2.936983623274371,0.8235393056198547,-11.911249524585074;-1.9289119521310996,2.9837665814449643,2.044668083833429;-0.5791762860804797,8.217215911367282,-15.050913134619677;-1.3011179210865367,0.5000349264735993,-6.247994254155763;-5.338980213154806,0.07375574971972343,-3.4775530995794384;-5.088635873316319,17.4495995714638,-11.419869964836089;-3.992107241110808,0.3513602439487914,-6.926939039919731;-1.3018476633934366,-3.2907979195967494,-10.110184568768776;-23.309600830078125,17.705230712890625,-5.847499847412109;10.783195169620129,8.924009253273777,5.057480863820128;-4.997831138384218,4.936623362960716,-12.629566602046424;-0.17128482228402953,-5.624064855574475,-5.575287700018265;
32.17493936343455,-60.791326110731205,-4.176797828824597;31.030964196779586,3.803512251479754,-11.255753868837303;-8.34862794563059,7.940693199566734,-18.09401123314538;10.823897460596472,-6.790384446948102,16.385736519738114;3.9256948485360086,1.5616612862179657,-16.01139400150749;-2.936901882391245,0.8235213024872128,-11.951785566401782;-1.9160989471322076,2.9841422358273118,1.437761178191792;-0.5702837432362501,8.309987664366876,-15.943320318523398;-1.3025008166547365,0.500198174634323,-6.912474597847449;-5.3741560379262605,0.07610513750909975,-3.8399319901912925;-5.088289607874441,17.415261212084516,-11.742542752527747;-4.004361451859376,0.35297664975759035,-7.484364253570114;-1.317917148135652,-3.2878866010975805,-10.324730326936262;-23.309600830078125,17.705230712890625,-5.847499847412109;10.71200723262173,8.94913370110488,3.5807169739896842;-4.979476675311877,4.932557339698728,-12.212345859929826;-0.16878350475270032,-5.6242988662837,-5.520171180829799;
32.181262527072384,-60.79201959923642,-4.193934134726341;31.104740638453524,4.6088620155066184,-10.840159693427129;-8.355110354129508,7.942821900964926,-17.994851998966425;10.897737917379622,-6.767421124373921,17.311380265830685;3.926573201349595,1.7959104016313336,-15.613078522581958;-2.9385769147071685,0.8238639545105018,-11.096924503451902;-1.9040860280777183,2.9843584858379995,0.8669190711414814;-0.5740306529494975,8.306099645642009,-15.269700284474393;-1.302089364908643,0.5001573693685375,-6.729318493583861;-5.380823202107024,0.07667218690471844,-3.909170779990788;-5.088409408908256,17.388724639375713,-11.947417283712007;-3.9988756714509446,0.352369527662058,-7.236097509951421;-1.3357673151080842,-3.284525753107187,-10.562323667011;-23.309600830078125,17.705230712890625,-5.847499847412109;10.71165933366964,8.585377256331789,3.41884407865874;-5.001864738337951,4.937530317319847,-12.72135595653532;-0.1830601333183537,-5.622903202400336,-5.834238524685386;
32.1683778036236,-60.7903931231892,-4.158886855323235;31.101267043523396,4.569384092527489,-10.860578807440502;-8.397985692424399,7.956623076628212,-17.338351618782344;10.957453014803724,-6.748564092785521,18.063188078108837;3.951513864092821,2.0157977954729187,-16.030083606278552;-2.9398145923552934,0.8241162180240067,-10.444702914266614;-1.89378770671413,2.9845349267157495,0.38180955533654526;-0.5613161645249609,8.561351971038501,-15.482588738011977;-1.303055379736936,0.5002642852801895,-7.192504298330611;-5.397157658827116,0.07753507577316698,-4.07614579577502;-5.09837621179494,17.262441227305064,-11.82007267610416;-4.004018915417137,0.3527362188049551,-7.46409164138565;-1.3891787181616242,-3.2744342130308146,-11.274580741911805;-23.309600830078125,17.705230712890625,-5.847499847412109;10.682442387792069,8.644471799870217,2.8311979822351;-5.03411885074347,4.945056339857217,-13.45698074905254;-0.1999488991016085,-5.6211055677570565,-6.204610055385974;
34.649113315049746,-61.19565955743625,-10.990527779012087;30.94920350401605,2.9690455494661094,-11.685449748329946;-8.322374193247043,7.93186561213968,-18.497725560115903;10.731429832916097,-6.817347679091908,15.233389073676753;4.658108387813251,2.667517578011786,-40.01897252308842;-2.8747223950300165,0.7853302721025646,-48.950615236340894;-1.5035142152519445,2.917835313177084,-18.463880820798607;-0.41586106763256214,8.760491745810185,-44.20550816808928;-1.3734565585208367,0.5371161558193519,-46.331686900530556;-6.6927255588736365,0.3382586063057418,-17.70755132498346;-5.021010690375716,16.64294336574518,-26.25241707472628;-4.419943090133854,0.48759879343897095,-27.20502545517519;-2.1285711546759214,-3.0525042119780728,-21.411890245019727;-23.309600830078125,17.705230712890625,-5.847499847412109;10.732306052245791,7.789310522155435,3.538840657809196;-5.028814987633745,4.943764032632635,-13.335630999687702;-0.19484933729418386,-5.621642127015371,-6.092980712493194;
42.4171040219965,-65.51908379256207,-36.216728171811276;30.280896000860757,-2.464434864685632,-14.454039201838398;-6.968542993887973,7.144518706757221,-41.41665983506695;7.504153431578098,-6.561197795407908,-24.16591776108657;5.197996583753519,5.460827596801507,-58.007489723453645;-2.846478957682861,0.6926724895572647,-98.73574854571291;-1.0362562299246016,2.636820506442486,-44.51991020054782;-0.27341261933740535,10.282262572610286,-66.03734619843468;-1.4036829676594134,0.6482827894594203,-104.40840882854965;-9.231373011198922,2.0335634498330606,-49.61554792821975;-4.913280283248161,14.381314384139772,-68.52566051010852;-5.097043704265449,1.8283498669077838,-99.29756254346572;-4.080144377039012,-1.5395385935119812,-54.293946085510186;-23.309600830078125,17.705230712890625,-5.847499847412109;10.040182086261673,1.3199081778630073,-11.948165853043971;-5.207334339436637,4.9933283082067055,-17.448492072720704;-0.2898176107720507,-5.609701886083673,-8.184586652786201;
41.781482626546335,-64.91870976941843,-33.76724156743367;30.5077138793324,-0.8230204232809335,-13.623629865410154;-6.855772823017022,7.040403040249018,-43.64337868630497;6.807433820936562,-6.173741450045323,-33.63410342099028;5.2575670195640685,7.4300975830564155,-55.929448083185264;-2.8505649335260337,0.6753342190829796,-107.53530224515168;-0.9041506271799487,2.482308541644855,-54.13997440206752;-0.27435660513791704,10.115297937806494,-68.93822001339566;-1.403700616736554,0.6480039777794286,-104.25139721606052;-9.698094279110958,2.6788597599166915,-57.826413197739704;-4.91273194897883,14.207115205157674,-71.97152651184079;-5.095880350139876,1.8359343383507027,-99.63632450177718;-4.189545113785311,-1.3791623602553649,-56.843484175769866;-23.309600830078125,17.705230712890625,-5.847499847412109;10.005647383196395,3.4299593043812595,-12.683441185863632;-4.921284637560385,4.920640259930703,-10.894873678958554;-0.10425990947152619,-5.629696056329215,-4.1061118705011275;
41.67717358400734,-64.82609314639096,-33.37556384450596;30.375497938689424,-1.7983333263000745,-14.117714996949626;-7.05454540177254,7.218928194499797,-39.766856938302006;6.15750033642883,-5.652688028450856,-43.50939610389325;5.247411987820739,6.154053663891167,-58.836700737593695;-2.8508038700187583,0.6745094617112619,-107.96818099490667;-0.7488310038565216,2.191450366488289,-69.78387792118096;-0.2748274588716253,9.975421682480405,-71.81212673193158;-1.4037184997873366,0.6479791996054259,-104.24390529833627;-9.762741052446266,2.785274137164687,-59.1095158954419;-4.878687346175111,14.645570836507105,-73.59894551488563;-5.094752463691017,1.8422755855357602,-99.926004982765;-4.212482724871751,-1.3437910710579832,-57.39756999648074;-23.309600830078125,17.705230712890625,-5.847499847412109;9.899837176992923,4.776127950312679,-14.795753565847537;-4.850875168804976,4.908035424941919,-9.306972624550582;-0.01940321106500842,-5.634394018792803,-2.2489639207518017;
41.670639006768646,-64.82008438629124,-33.35073708156773;30.233272612886935,-2.7911979701490743,-14.618753700434201;-7.134185670165076,7.283916125642079,-38.275508279665445;6.136802404285864,-5.632332176925476,-43.85131448245727;5.222569955749516,5.477859075772008,-59.35933989118283;-2.850884390094151,0.674231207588306,-108.1204409612086;-0.75038667019331,2.195933974862757,-69.56196199750707;-0.2771330685589797,9.951116626177306,-71.22328490204372;-1.4036970297431866,0.648205820336551,-104.3634621770489;-9.71984295659161,2.713191648168934,-58.24676211563884;-4.878385349552859,14.658309790365738,-73.40568773578958;-5.093602413400528,1.8493008983061872,-100.25002291071519;-4.211705602274652,-1.3452096292884002,-57.37737500473472;-23.309600830078125,17.705230712890625,-5.847499847412109;9.829397771492017,6.024124255403626,-16.063577618259266;-4.797370664533609,4.899807325706675,-8.106878782109568;0.06195784531230086,-5.636411339248695,-0.4702477294390519;
41.39811485940277,-64.58532578878686,-32.3398074475281;30.10130729305984,-3.666634818148097,-15.058717884130571;-7.243550607682784,7.3678736097863,-36.27379190989187;6.219856460765882,-5.711309568762024,-42.49694361012635;5.183128675506794,4.54705420458853,-59.842983302031094;-2.8508096244836048,0.6746449960862939,-107.8958240244252;-0.7387046478293793,2.162649351591646,-71.22739919308822;-0.28009215439979124,9.874171641760958,-71.50319194333815;-1.4027898469480335,0.651277981657666,-105.88287106331701;-9.730607150040582,2.731647622032086,-58.4654176770469;-4.861801068843516,14.909156163946403,-73.36085595444663;-5.084165227622466,1.8960674430266387,-102.37977841931354;-4.251529639381658,-1.2813214961818593,-58.36502348518853;-23.309600830078125,17.705230712890625,-5.847499847412109;9.888609338809244,5.5924546269900794,-14.881784822825214;-4.8088083554790675,4.901465747166744,-8.36213053016214;0.05671668002365848,-5.63629225472287,-0.5848893830203181;
41.28533295737918,-64.49095172992875,-31.92622646457152;30.03254563297372,-4.107235804367765,-15.27945241346852;-7.210984301307702,7.343512951016322,-36.86428472009155;6.201363101573741,-5.694089934495309,-42.795642624698424;5.145086989352764,3.397728659453202,-61.15818068995145;-2.8508263321775558,0.6744866282624375,-107.97905157342886;-0.7504708885230704,2.19579996097446,-69.56385515719661;-0.29574802964629704,9.50418874328605,-72.14206322072626;-1.4029737558069155,0.6507294791301926,-105.6101317921495;-9.69721309354333,2.677031093369793,-57.80609293844472;-4.875268886627973,14.694303786198642,-73.66383144901705;-5.086050132975038,1.8875284490543023,-101.98899235017274;-4.231017871790036,-1.314259962685815,-57.85529887815488;-23.309600830078125,17.705230712890625,-5.847499847412109;9.915143386630461,5.594117374881015,-14.308696572887754;-4.847238859190124,4.907440512493703,-9.226222274526492;0.06070289092939052,-5.636394949300883,-0.4978031799981224;
41.114722879516286,-64.35089878480346,-31.305230099731112;30.12520251499096,-3.51045722473177,-14.980318410944584;-7.195705787060024,7.331896671170193,-37.14278149215639;6.195874256116708,-5.688546131150791,-42.88625704198559;5.188498597017514,4.101923526973191,-61.54227178597272;-2.8508819961118377,0.6741504460280323,-108.16357361935769;-0.7447828196860774,2.180560003982916,-70.33677227932509;-0.2914611032956034,9.574641786654363,-72.72301198606553;-1.4030138195755195,0.6505919181701335,-105.5502311479068;-9.699343732467788,2.6797889636484236,-57.84340320859542;-4.888650890065539,14.48939057022319,-73.7215114972191;-5.087978873743461,1.8791541018992377,-101.61342634604895;-4.263773293452266,-1.2618057201601,-58.669256355255314;-23.309600830078125,17.705230712890625,-5.847499847412109;9.915496411403565,5.478363119375585,-14.326319352031277;-4.882297853121562,4.913417286141654,-10.015643516411373;0.06754433711993912,-5.636410533222965,-0.3481808668246984;
41.1673745478542,-64.3941579581841,-31.496863209711563;30.10554819737067,-3.6393079954821914,-15.045026202818649;-7.21766864173608,7.348575506954161,-36.742207254909324;6.191872207625968,-5.685197437954737,-42.94947876204063;5.180584082756829,4.152099778791258,-60.910679125561266;-2.8509097230675318,0.6741858168387993,-108.13465260179295;-0.742948811424832,2.1750017643804185,-70.60913783932428;-0.28384154069644435,9.773545790730813,-71.95203720894534;-1.4029265150002121,0.6509397624585442,-105.71413313450664;-9.728818997662326,2.728713660890384,-58.430025162751534;-4.869063827655719,14.80816857119198,-73.19734599470578;-5.086879973305892,1.8830982572704764,-101.78518064604472;-4.27534044408247,-1.2419485133066306,-58.969210078185704;-23.309600830078125,17.705230712890625,-5.847499847412109;9.913218104746072,5.740973002488317,-14.317047727993469;-4.927070164260877,4.921742196090281,-11.02532827158069;0.06305087415359445,-5.636395157916221,-0.4464976099857836;
41.06629601909296,-64.31282207001618,-31.131493331693964;30.113813309092173,-3.585858203972398,-15.018205860741707;-7.255901083892318,7.376969764906142,-36.05102944846111;6.189573319984269,-5.683165048831955,-42.98630905367802;5.1845761235365995,3.969556378589873,-61.738998086421056;-2.850835350175085,0.6745073295185199,-107.96369469616434;-0.7494129045012088,2.19283888743192,-69.7101782270813;-0.2720655749592206,10.003118357979409,-72.62436151552669;-1.4030835664683499,0.6502815962436355,-105.38305683673866;-9.673958439798604,2.640232048630241,-57.35712367561902;-4.8736400203289305,14.689620653097972,-74.31934185022111;-5.086457250741942,1.8845979317131931,-101.85045231726721;-4.23479354144447,-1.3079865719332613,-57.95076931822672;-23.309600830078125,17.705230712890625,-5.847499847412109;9.9082624201352,5.585055635797632,-14.458559726835666;-4.932495199924238,4.922804150058349,-11.1480662998311;0.07719192995514979,-5.636394666497409,-0.13754949078329304;
41.09699680478672,-64.33543818534214,-31.23947634035696;30.03406335534988,-4.096036795405601,-15.273752192438847;-7.295701981092218,7.4057818163833256,-35.33759364247232;6.176773132705627,-5.6704317087008365,-43.19693322568106;5.193811693495506,4.428970224988376,-60.81751985645577;-2.85067458549721,0.6746204329031561,-107.93420460000254;-0.7466359881983429,2.1864964475499975,-70.04894789808486;-0.2672275644804549,10.155771546541487,-71.46216148877089;-1.4025131694069006,0.6525487353280579,-106.54132718110347;-9.691358526477446,2.665765177202233,-57.67928471723573;-4.850474373618779,15.138088398736832,-72.02930543469927;-5.082052938126129,1.9089217461621029,-102.99304535768134;-4.252517936379854,-1.2813702087546794,-58.37592535155217;-23.309600830078125,17.705230712890625,-5.847499847412109;9.90454639661323,5.244145958657477,-14.612184980559462;-4.966190899222829,4.929736949849273,-11.911884243243918;0.06866256392404146,-5.636408533484565,-0.32381563147806247;
34.09834878802293,-61.10027326141566,-9.472470888699899;28.621874137155412,-11.52183142615207,-18.909553437271896;-8.351895067773576,7.936984144890169,-18.0660692218554;8.155930297892667,-6.781444144213353,-15.973852047507743;3.3851936961284683,-1.8166598679391681,-4.910279197863183;-2.926427567396833,0.8191443659638298,-17.636782010719983;-1.609750534375996,2.944817729051967,-13.274009622447153;-0.8230079615973677,5.361902206598771,6.2723517426633535;-1.316744254922407,0.5046145107675106,-14.170777584286213;-6.261999107339212,0.23550802664907566,-13.154589705424463;-5.336216413550259,15.802218398847476,4.003881606401215;-4.070461808281827,0.3752804730052306,-10.653029581018558;-1.3382579443507963,-3.2645081883215354,-10.65817300240262;-23.309600830078125,17.705230712890625,-5.847499847412109;10.063247027576121,14.888592253368941,-6.10809213613549;-4.933480966691147,4.923052465100251,-11.170395161488443;0.0459478754527578,-5.636210160893385,-0.8201623682574422;
32.7194338768638,-60.847141240070044,-5.648250436575928;30.47132115159332,-1.0841952237786021,-13.755669909202346;-8.779700055419354,8.05610565081007,-11.581753025325604;9.994656352390919,-6.959071248808743,6.243908729182447;3.622478303095047,-0.45311136338605795,-9.894260165496547;-2.927631440902152,0.8211310848546801,-16.69755365116231;-1.6639861809874374,2.9639377144770314,-10.548241228902128;-0.712872817753021,5.995267303740109,-8.830685227924555;-1.309955883260232,0.5013713845724919,-10.559954159077236;-5.680256785356091,0.10562466131743742,-7.00019075609729;-5.1892200105677855,16.036845278559678,-11.124395957882768;-4.069885697902174,0.3636568021840425,-10.473606187191919;-1.2256002279232376,-3.303364165117263,-9.098722121883519;-23.309600830078125,17.705230712890625,-5.847499847412109;10.268555552621125,15.782434766110857,-1.1533096037522341;-4.860783430793225,4.909690314250625,-9.530853917342156;0.029167953860860685,-5.635864455374357,-1.1868619418330084;
32.92474438874697,-60.87189074020781,-6.205654173405126;30.60928079749762,-0.031729281040300705,-13.221279167343248;-8.660079140062173,8.029379992140676,-13.370654115654972;10.35379163863782,-6.905101830508799,10.58942106032196;3.6992709003971207,-0.8520557922671861,-13.119368505112718;-2.9344399040054423,0.8230016604637054,-13.170567568954752;-1.7498525278113557,2.976976173748324,-6.438521780181418;-0.6922061280296319,5.956110988039791,-12.988068210121035;-1.3021911353484712,0.5001471723498391,-6.775696803051503;-5.47123706088448,0.08321352410062444,-4.83857435217881;-5.099352682654671,16.947731390232274,-14.270410785643293;-4.024419066799318,0.3554966193424831,-8.37853832015756;-1.1292448774651005,-3.3182643259529856,-7.818793324470612;-23.309600830078125,17.705230712890625,-5.847499847412109;10.308218457150428,15.263579938248503,-0.7748670567973619;-4.915213332519437,4.919486259131282,-10.757938220708397;-0.06160453656098719,-5.632455037995592,-3.17147787872743;
33.45032516152524,-60.948448758864856,-7.644074535180884;30.803247170463855,1.6043487334228992,-12.385731902136788;-8.530364165221277,7.995842335097955,-15.324780597631282;10.463035020596426,-6.882986997537907,11.923522452314973;3.701164318177262,-0.6179754081469016,-12.740963290912035;-2.9360583506799656,0.8233463693664167,-12.35714760845012;-1.7868831751452856,2.9804708361956522,-4.678051539141819;-0.694780132108328,5.864580587169924,-13.276725701278252;-1.2991453100293147,0.4998463655656585,-5.317024325373296;-5.388838929902013,0.07714681765616094,-3.9910280100330056;-5.141060382719388,16.319670608649485,-14.47586244428215;-3.999511794502488,0.35237872925387426,-7.265433715508394;-1.1115852515490552,-3.3203722269270193,-7.58732555673015;-23.309600830078125,17.705230712890625,-5.847499847412109;10.373193593993435,14.005360194579815,-0.43718788316228085;-4.914257581344522,4.9192682679109385,-10.73561738512332;-0.09396104678787665,-5.630423205691203,-3.8798581312721723;
34.4736410423595,-61.14535277325108,-10.487304970261306;30.408806375974134,-1.5562173925889429,-13.995220497359533;-8.40012289521892,7.957304104190433,-17.305317235738922;10.221983742979893,-6.928195502245929,8.988191060076868;3.83214504047814,-0.20452434331920077,-16.2299724468877;-2.9319855676337037,0.8223682904447197,-14.434877972994983;-1.7996932146135365,2.9814038059976364,-4.075063455020398;-0.6429078792380563,6.461137740342411,-18.008729728885534;-1.3031619420360516,0.5002879103098532,-7.238803385401681;-5.463043585572411,0.08292723268525837,-4.75531959782694;-5.101984094327768,16.664091878485152,-16.27479016290053;-4.022219428072221,0.3555757467526095,-8.296868366914495;-1.1661672509676246,-3.3126698724773744,-8.310035529619185;-23.309600830078125,17.705230712890625,-5.847499847412109;10.190615797113349,13.59277267981928,-4.569781575723333;-4.972846742458074,4.931101653379529,-12.0618824298339;-0.09761221078883908,-5.630181049254082,-3.9600109337069256;
34.311725388521495,-61.10965703235417,-10.033032524240383;30.558203226853525,-0.4346493475683282,-13.426298285178028;-8.398089211979308,7.956653617820263,-17.336935287338726;10.062999837113836,-6.950971763822814,7.0668552326438565;3.8516035836237545,-0.1339843960867464,-16.734236029974028;-2.9331418936261384,0.8226707436012112,-13.853267187887354;-1.8271626331717803,2.9831647462898876,-2.7685594627576506;-0.6297615299250038,6.679206766234074,-18.643565756439273;-1.302234781789213,0.5001618227233349,-6.788734432749976;-5.477233153006236,0.083905262255481,-4.900981820242883;-5.084473115544854,16.82863535164089,-16.99463684883564;-4.0159774529903265,0.354435513202483,-8.003619604804584;-1.1858690142993953,-3.3099604804387956,-8.569537189523459;-23.309600830078125,17.705230712890625,-5.847499847412109;10.243463397534779,13.508232792621783,-3.52404673382685;-4.991561658506265,4.935258231401033,-12.48827680239367;-0.09338212527970358,-5.6304904375480085,-3.8672131037551907;
34.76790729722735,-61.21428491100224,-11.316751434989897;30.361748052317797,-1.8972069512358551,-14.167743951958174;-8.467943249375754,7.9779740286147405,-16.272127220882332;9.949268270618127,-6.963915432288491,5.698050399189647;3.8932831086850306,0.1305415766605531,-17.60705221712957;-2.9322760150768987,0.82244119557982,-14.305164284090154;-1.8376471152509506,2.983570260224061,-2.273917323885314;-0.6063590781354489,7.119577354592477,-19.324623091108045;-1.3024698299921929,0.5001987779297181,-6.915470844874193;-5.466054495456522,0.0830606117676278,-4.786261457766919;-5.075483775315099,16.927945860164954,-17.236276851940225;-4.006410325700012,0.3532407095296537,-7.575123888297824;-1.180611343501381,-3.3106626378894943,-8.500410961055557;-23.309600830078125,17.705230712890625,-5.847499847412109;10.218668673459163,13.476529524451552,-4.067394483807625;-5.006937474244665,4.938693617622125,-12.836753298301062;-0.07420181453427643,-5.631703723937687,-3.4473301570990458;
34.990732306369836,-61.2701161985632,-11.948720234725187;30.233864041690445,-2.787229571660383,-14.616763361344464;-8.49312383397598,7.985306700342246,-15.890037379393686;9.84096165805909,-6.97356797354707,4.398087013996854;3.9355075929753216,0.276740434404676,-18.727534836011127;-2.930063917090625,0.8218512022853521,-15.431481819781993;-1.8409676699792952,2.9836503729114106,-2.1180354970670123;-0.5694489742245465,7.701668299933421,-21.367545935174036;-1.3051175007860667,0.5005554448425344,-8.207308575697638;-5.464775722122841,0.0830276403246768,-4.773721749237822;-5.049949064100345,17.19670666129634,-18.037841961149844;-4.016788160483733,0.35475490891977146,-8.049468871466317;-1.2059711104011637,-3.3066607687862017,-8.837109728353866;-23.309600830078125,17.705230712890625,-5.847499847412109;10.199497126597423,13.13972049784472,-4.71441228403981;-5.07696425941024,4.955707366812333,-14.436747211050786;-0.07313289187345617,-5.631752694924019,-3.424432710619314;
35.0334592810042,-61.2810604359755,-12.070036346064885;30.154000059319,-3.3215438888681597,-14.885463995766335;-8.50635705072799,7.989104661617453,-15.689165957262134;9.7577268142514,-6.979331146998588,3.4008127588778514;3.9418943901323282,0.17838946311088755,-19.125700022269974;-2.9312309965503465,0.8221806702811341,-14.826514237695363;-1.8573883948298382,2.984230047221635,-1.3399233364825562;-0.5482541109491758,8.189017841015175,-21.1989840283466;-1.3038853599532108,0.5003740714219022,-7.589961600349014;-5.419581857785034,0.07929315507607626,-4.307034012713267;-5.04409404139219,17.29844424947,-17.881993171331217;-4.00368566874942,0.3528124665422614,-7.448730911122809;-1.198964681566566,-3.3078912617533547,-8.743681587140799;-23.309600830078125,17.705230712890625,-5.847499847412109;10.188425632499714,12.973615562824579,-5.064525319284627;-5.062714778743919,4.952145382062006,-14.111187476248574;-0.0490156276162772,-5.633075635671561,-2.895574909884303;
35.11313713380561,-61.30227294260783,-12.297321717496114;30.42580122318719,-1.4335447685092717,-13.93311213883285;-8.563182009050701,8.004763571516113,-14.829171436727052;9.795622921265073,-6.97692788606455,3.85467167516914;3.974220518365507,0.5056544172086888,-19.580314507245493;-2.932076861448153,0.8223942962639113,-14.400632106977184;-1.8671312195584644,2.9843906822578754,-0.8775749246751303;-0.5277425099594532,8.522987721812807,-22.245855783969546;-1.305263657431805,0.5005683841403737,-8.261262145423288;-5.4044507717768315,0.07821485569063036,-4.151675225147187;-5.035527591404214,17.362705929850808,-18.362250367504657;-4.015782097019316,0.3545155391188284,-8.00039568123077;-1.2322320364030732,-3.302620718201086,-9.184834869593374;-23.309600830078125,17.705230712890625,-5.847499847412109;10.207835771178143,12.234327897717439,-5.160525063393855;-5.060627341854561,4.9515813205399075,-14.062097977830518;-0.03992637415545275,-5.633527540235802,-2.6971283129622066;
