40.66462,-64.06123,-29.838171,29.975325,-4.164687,-15.302484,-6.874987,7.046389,-43.408546,5.926895,-5.4249225,-47.299488,4.887527,0.77266055,-55.70061,-2.8496308,0.6767578,-106.73513,-0.8681181,2.4157677,-57.510204,-0.4363171,8.536183,-40.460148,-1.2835971,0.49408165,-0.45685512,-5.087257,0.070045725,-0.86554605,-4.7862725,16.380735,-65.80735,-5.0513954,2.030144,-108.412125,-4.1361747,-1.4475527,-55.762634,-23.311758,17.70701,-5.848259,7.7984886,2.4326801,-70.33809,-6.9474683,8.009834,-102.35304,-1.7764659,-4.851052,-45.331604
40.61029,-64.01306,-29.629686,29.938131,-4.3486505,-15.394968,-6.858823,7.030833,-43.737072,5.924752,-5.4223714,-47.340168,4.917067,0.84585315,-56.895493,-2.8496304,0.67630196,-106.94361,-0.87748986,2.4311652,-56.663788,-0.4228257,8.849512,-40.47695,-1.2908788,0.49173662,-0.74357635,-5.1057343,0.06947714,-1.0416745,-4.7894106,16.328451,-65.83493,-5.0513897,2.02508,-108.18731,-4.117175,-1.4755994,-55.30562,-23.311758,17.70701,-5.848259,7.8458595,2.4458666,-69.10186,-6.9456153,8.0166235,-102.50529,-1.7758672,-4.851653,-45.312653
40.346863,-63.784508,-28.62683,29.81701,-5.0291057,-15.735461,-6.804691,6.9781737,-44.841465,5.972353,-5.4770045,-46.45727,4.913941,1.2151139,-55.76293,-2.8496227,0.67875385,-105.81061,-0.8676794,2.41504,-57.55027,-0.39158,9.205314,-43.112743,-1.2821362,0.49970317,0.020361807,-5.009894,0.064209014,-0.10191406,-4.769413,16.48833,-67.32483,-5.0513554,2.0149748,-107.73848,-4.088715,-1.5167909,-54.629574,-23.311758,17.70701,-5.848259,7.7249546,2.618268,-72.183784,-6.947552,8.009528,-102.34619,-1.6577528,-4.9633474,-41.6912
40.636414,-64.03617,-29.729841,29.894493,-4.562921,-15.502607,-6.882104,7.0532184,-43.26406,5.8194866,-5.2819963,-49.50761,4.8936048,0.42599803,-56.913525,-2.8496294,0.6756544,-107.245,-0.84590703,2.3777132,-59.602448,-0.38947976,9.479412,-41.55653,-1.2822381,0.49993896,0.00080433115,-5.0294647,0.065562904,-0.28758463,-4.7685304,16.58921,-66.48947,-5.0513897,2.026871,-108.26694,-4.1676736,-1.4000578,-56.53064,-23.311758,17.70701,-5.848259,7.8428555,2.2548227,-69.24797,-6.942066,8.029347,-102.790436,-1.7912972,-4.836087,-45.801826
40.644993,-64.043785,-29.76277,29.907846,-4.495908,-15.468973,-6.8821373,7.053251,-43.26339,5.8015585,-5.253953,-49.923027,4.8759675,0.12217647,-56.895634,-2.8496313,0.6762533,-106.9675,-0.8391636,2.3657236,-60.26169,-0.410087,9.043438,-41.221478,-1.2860581,0.4992102,-0.19650798,-5.0359273,0.066074595,-0.35015044,-4.784852,16.375141,-66.07593,-5.051403,2.0306418,-108.43443,-4.193764,-1.3597411,-57.17682,-23.311758,17.70701,-5.848259,7.853733,2.1840143,-68.99033,-6.941893,8.029946,-102.80392,-1.8204215,-4.806028,-46.736176
40.694096,-64.08751,-29.951488,29.830332,-4.9493756,-15.695671,-6.9047127,7.074801,-42.805668,5.752474,-5.1777954,-51.03636,4.876697,-0.060517013,-57.422222,-2.8496275,0.6769581,-106.64304,-0.8414429,2.3697982,-60.03766,-0.41232336,9.04669,-40.82506,-1.2829121,0.50083774,-0.120022446,-5.0561547,0.06791839,-0.5514354,-4.791289,16.326117,-65.57248,-5.0513935,2.0284846,-108.33865,-4.1935368,-1.3600965,-57.171143,-23.311758,17.70701,-5.848259,7.900235,1.9078465,-67.87949,-6.937192,8.046173,-103.167816,-1.8295238,-4.796447,-47.03125
40.542126,-63.953114,-29.368902,29.839804,-4.8926125,-15.667335,-6.881738,7.0528684,-43.27148,5.8075676,-5.263538,-49.781708,4.8950667,0.398063,-57.05758,-2.8496237,0.67852783,-105.91324,-0.84500104,2.3761134,-59.690483,-0.3998276,9.229143,-41.609745,-1.282518,0.5001905,0.030349221,-5.0182366,0.06475572,-0.18075682,-4.779421,16.435097,-66.32183,-5.051388,2.0254424,-108.20335,-4.1391253,-1.4431579,-55.834023,-23.311758,17.70701,-5.848259,7.8201103,2.1774244,-69.866714,-6.939903,8.0369,-102.959854,-1.7600071,-4.8674035,-44.81395
40.67277,-64.06849,-29.869505,29.833782,-4.9287057,-15.685351,-6.880362,7.0515475,-43.299454,5.826746,-5.2928977,-49.344486,4.9018283,0.6097577,-56.80894,-2.8496246,0.6772251,-106.51685,-0.8469637,2.3795738,-59.5002,-0.3920771,9.390121,-41.757404,-1.2843381,0.5024999,0.0719312,-5.0051947,0.06409332,-0.047733117,-4.7692547,16.567904,-66.58438,-5.051388,2.0265925,-108.254456,-4.1425934,-1.4379761,-55.918095,-23.311758,17.70701,-5.848259,7.8070564,2.2811346,-70.1692,-6.9414515,8.031498,-102.838776,-1.7434292,-4.883605,-44.29698
40.08566,-63.566326,-27.64601,29.944775,-4.3160424,-15.378578,-6.864529,7.0363345,-43.621094,5.884351,-5.3723383,-48.129433,4.8930516,0.43132526,-56.8732,-2.8496146,0.6820688,-104.27081,-0.851775,2.387982,-59.037884,-0.4181844,8.67141,-42.475742,-1.2836485,0.50163513,0.05596588,-5.0161996,0.06462,-0.16162379,-4.7881703,16.270327,-66.58056,-5.05138,2.0234015,-108.112915,-4.103776,-1.4951124,-54.986084,-23.311758,17.70701,-5.848259,7.768306,2.342966,-71.15475,-6.9448667,8.019337,-102.566055,-1.7387793,-4.8881025,-44.152733
40.00362,-63.499577,-27.340755,29.888147,-4.6013436,-15.52182,-6.8579035,7.0299478,-43.755814,5.8213577,-5.284824,-49.465416,4.8896527,1.1551049,-54.786324,-2.8496141,0.6810627,-104.73877,-0.8304365,2.3498974,-61.13154,-0.40613353,8.963744,-42.421333,-1.2881187,0.49760905,-0.26401863,-5.075235,0.07003082,-0.74957377,-4.762978,16.669733,-66.555626,-5.051361,2.0170634,-107.831276,-4.159084,-1.413135,-56.31992,-23.311758,17.70701,-5.848259,7.7427454,2.5335417,-71.751495,-6.947026,8.011478,-102.38989,-1.7272122,-4.8992004,-43.795433
39.84756,-63.37501,-26.764027,29.837154,-4.908516,-15.675278,-6.8175173,6.990726,-44.57923,5.861019,-5.341505,-48.606537,4.9156537,1.5978749,-54.829777,-2.8496141,0.68294907,-103.864624,-0.8432043,2.372929,-59.86554,-0.3932718,9.1437845,-43.257286,-1.282187,0.4941893,-0.41669217,-5.120844,0.069055036,-1.1888448,-4.7528844,16.768108,-67.138504,-5.053734,1.994858,-106.84894,-4.1449766,-1.4344077,-55.975937,-23.311758,17.70701,-5.848259,7.714262,2.4604864,-72.51812,-6.9498663,8.000852,-102.15182,-1.6559155,-4.964987,-41.636505
40.25935,-63.71046,-28.296675,29.889933,-4.590551,-15.516426,-6.897764,7.0681834,-42.94647,5.7916155,-5.237631,-50.162148,4.9180217,1.2269356,-55.92281,-2.849617,0.6819668,-104.31836,-0.8218449,2.3339787,-62.0063,-0.40051758,9.240033,-41.418423,-1.2917178,0.49091765,-0.80087495,-5.1588974,0.06817688,-1.5725476,-4.7543125,16.877937,-65.86774,-5.051302,2.0042784,-107.263336,-4.208262,-1.3369448,-57.5399,-23.311758,17.70701,-5.848259,7.8331966,2.3862638,-69.45229,-6.943842,8.023045,-102.649124,-1.7734182,-4.854102,-45.235374
40.221203,-63.67849,-28.153242,29.825005,-4.9813046,-15.71161,-6.8730707,7.0445495,-43.447487,5.7876873,-5.2310033,-50.258724,4.9500175,1.712085,-56.133102,-2.8496184,0.68197536,-104.31493,-0.8297451,2.34863,-61.201294,-0.38932335,9.441585,-41.85045,-1.3001715,0.48658413,-1.1828235,-5.254219,0.06848049,-2.5780704,-4.7380443,17.076397,-66.4228,-5.058647,1.9809039,-106.23723,-4.2029366,-1.345351,-57.40621,-23.311758,17.70701,-5.848259,7.8210554,2.2577171,-69.81368,-6.9443383,8.02125,-102.60892,-1.7435825,-4.8834558,-44.301743
40.71972,-64.11044,-30.050192,29.797209,-5.1472406,-15.794389,-6.904739,7.0748296,-42.805046,5.792596,-5.2392626,-50.138355,4.9903245,2.2114556,-56.696026,-2.8496218,0.6797104,-105.36737,-0.84601957,2.3779078,-59.591713,-0.38369834,9.673463,-41.13488,-1.2960635,0.49421215,-2.6042373,-5.3273063,0.07120034,-3.4001365,-4.7205024,17.372286,-66.23523,-5.0691566,1.9486163,-104.81915,-4.240176,-1.2857305,-58.349674,-23.311758,17.70701,-5.848259,7.886669,2.1163855,-68.15818,-6.9537396,7.9859333,-101.81745,-1.789983,-4.8374233,-45.75998
40.498142,-63.914734,-29.201082,29.67526,-5.8657665,-16.15209,-6.887753,7.0586267,-43.149372,5.737524,-5.160865,-51.290504,4.9135795,1.4958146,-55.002457,-2.8496208,0.67869186,-105.84036,-0.8360184,2.3600578,-60.573143,-0.41598642,8.960447,-40.82865,-1.2836269,0.47979486,-1.8622859,-5.2931967,0.06969917,-3.008762,-4.7604475,16.832567,-65.37532,-5.0569954,1.9856856,-106.44685,-4.216246,-1.3242652,-57.74115,-23.311758,17.70701,-5.848259,7.836154,2.421443,-69.36291,-6.9443836,8.02109,-102.60539,-1.7785094,-4.8490047,-45.396145
40.672768,-64.06848,-29.869486,29.765982,-5.3326793,-15.88682,-6.891413,7.062122,-43.075092,5.8005342,-5.2523036,-49.947254,4.9452252,1.8877633,-55.443142,-2.8496256,0.67801094,-106.15467,-0.8463381,2.3784714,-59.56078,-0.39125073,9.563061,-40.653137,-1.2816074,0.47720137,-1.7403568,-5.193871,0.06762606,-1.9425554,-4.7474766,17.024012,-65.49926,-5.0554047,1.9901869,-106.64425,-4.179672,-1.38163,-56.82665,-23.311758,17.70701,-5.848259,7.8527803,2.5609198,-68.88096,-6.9503284,7.9991283,-102.11307,-1.774095,-4.853424,-45.25676
39.260418,-62.935204,-24.640509,29.586073,-6.3816333,-16.40813,-7.7265263,7.6729674,-27.958126,8.175201,-6.799819,-15.646408,4.041988,1.3949893,-20.052412,-2.8649964,0.7745733,-56.177586,-1.3051894,2.833659,-29.328297,-0.5585023,6.9710283,-30.637218,-1.3919098,0.5635622,-62.04374,-8.347229,1.1808064,-36.923008,-5.1773567,13.182329,-37.337185,-5.0341415,1.2011378,-70.553276,-3.679477,-2.0173926,-45.888794,-23.311762,17.707012,-5.84826,8.968403,4.0890303,-39.33312,-6.799515,6.486671,-67.78404,-1.6488912,-4.9712358,-41.427685
33.8471,-61.195156,-8.776433,30.128368,-3.3684325,-14.901794,-8.798756,8.063046,-11.257864,9.249447,-6.9814186,-2.5547059,3.4849977,1.1244159,-2.4427135,-2.926528,0.82121444,-17.637852,-1.7129998,2.9764462,-8.316836,-0.57607377,9.569887,-4.0526476,-1.3152213,0.5021237,-12.867265,-5.647273,0.105801836,-6.5643134,-5.376292,14.713781,-3.9392743,-4.199292,0.40182942,-16.611233,-1.5118034,-3.2560635,-12.87157,-23.311764,17.707014,-5.84826,10.6157255,11.861075,6.261227,-5.394398,5.0570645,-21.928005,-0.6554969,-5.522193,-16.383188
33.26899,-61.174835,-7.347823,30.66339,0.13198128,-13.131137,-8.678887,8.036757,-13.038333,10.021497,-6.949449,6.6513505,3.552845,-0.44292468,-7.9199743,-2.9309673,0.82239175,-15.242546,-1.831562,2.981269,-2.5600612,-0.6584819,7.022885,-9.614043,-1.3133457,0.5017968,-11.994687,-5.3375473,0.07173383,-3.520336,-5.301352,14.367245,-7.6329074,-4.1450114,0.38311905,-13.98532,-1.2407398,-3.284034,-9.40038,-23.311762,17.707012,-5.84826,10.545758,11.869777,4.4441886,-5.2034626,4.990044,-17.423843,-0.43751943,-5.582448,-11.556537
32.464752,-60.96779,-5.073553,30.824938,1.5373081,-12.415456,-8.433718,7.9684153,-16.75686,10.168718,-6.938652,8.43615,3.6649823,0.554673,-9.714482,-2.9295664,0.8220544,-16.003199,-1.7621222,2.973378,-5.7223883,-0.62348425,7.1773314,-14.882824,-1.3081603,0.5010819,-9.6534195,-5.3561234,0.0728018,-3.7415867,-5.2302155,14.9303255,-12.012051,-4.111745,0.37313312,-12.371418,-1.2298238,-3.2843683,-9.264528,-23.311758,17.70701,-5.848259,10.401728,11.764342,0.66104096,-5.1378064,4.9711,-15.89008,-0.2420285,-5.6172633,-7.0890536
32.092403,-60.87193,-4.0206013,30.67666,0.23924103,-13.076613,-8.565924,8.007667,-14.739252,9.907794,-6.958277,5.2626476,3.6794405,1.008281,-9.07875,-2.9327526,0.8227787,-14.26932,-1.717284,2.9786682,-8.156579,-0.6584139,6.435292,-14.717822,-1.3016365,0.5005424,-6.679836,-5.614465,0.10121986,-6.2504873,-5.172152,16.148785,-9.068836,-4.088964,0.367186,-11.294108,-1.3150414,-3.2801442,-10.333344,-23.311758,17.70701,-5.848259,10.73887,13.633038,10.098849,-5.250982,5.005014,-18.537352,-0.39232326,-5.590928,-10.579767
33.850758,-61.194973,-8.78499,30.925978,2.5482554,-11.8988085,-8.329714,7.933708,-18.363335,10.179146,-6.936377,8.560141,3.9810777,2.4939392,-16.219423,-2.9212737,0.81942606,-20.431608,-1.7726781,2.9758244,-5.269412,-0.51807237,8.830411,-21.212221,-1.3235967,0.5039089,-17.045994,-5.7302732,0.1181124,-7.3537993,-5.189022,15.015706,-17.67029,-4.2522783,0.41691655,-18.878185,-1.5891767,-3.2410564,-13.895283,-23.311758,17.70701,-5.848259,10.135188,9.5535145,-7.0551863,-5.2451396,5.0031147,-18.400284,-0.33135936,-5.601529,-9.1357355
35.295063,-61.25748,-12.372976,30.923256,2.5194802,-11.913536,-8.268419,7.9117217,-19.317657,9.53356,-6.993445,0.82340497,3.8680172,-0.36367482,-17.433079,-2.912735,0.81568813,-24.947128,-1.7557209,2.9727504,-6.022847,-0.6229739,6.7262654,-19.32716,-1.3275683,0.50495654,-19.163513,-5.6492887,0.10608901,-6.5835567,-5.2871923,13.547601,-16.806404,-4.294468,0.4285633,-20.942532,-1.4258736,-3.2690568,-11.751288,-23.311758,17.70701,-5.848259,10.145182,9.251318,-6.9028144,-5.376755,5.050074,-21.507526,-0.44271255,-5.5817623,-11.661606
33.811646,-61.19695,-8.693728,30.923286,2.5197978,-11.913373,-8.426266,7.966039,-16.871424,10.376524,-6.8925786,10.900482,4.0068426,2.8550327,-16.431982,-2.9275365,0.8215089,-17.097023,-1.8368342,2.9807923,-2.2330596,-0.50243735,9.218391,-20.750643,-1.3136232,0.5018428,-12.122876,-5.4907126,0.08568627,-5.057636,-5.157392,15.6394415,-16.42829,-4.1509404,0.38505572,-14.277361,-1.5606393,-3.2469568,-13.516099,-23.311758,17.70701,-5.848259,10.210771,10.3883,-4.793219,-5.09582,4.9599977,-14.911583,-0.1708222,-5.625243,-5.513152
32.971027,-61.098125,-6.5052333,31.015265,3.5510974,-11.384806,-8.768524,8.056865,-11.704491,10.665527,-6.8271356,14.316728,3.8782196,2.6414325,-12.704676,-2.937233,0.8235676,-11.84396,-1.8846097,2.9894772,-0.17955226,-0.52330947,9.179245,-16.649847,-1.3023849,0.500615,-7.0346885,-5.2659054,0.06879218,-2.7053723,-5.1186666,16.477407,-14.130798,-4.017108,0.35352713,-8.051554,-1.1273044,-3.3051867,-7.8750243,-23.311758,17.70701,-5.848259,10.345309,11.365478,-0.947758,-4.9159074,4.920119,-10.751079,-0.026115753,-5.629248,-2.5173855
32.931057,-61.08784,-6.3922033,31.131317,5.051719,-10.612917,-8.551533,8.003663,-14.957448,10.602968,-6.8413815,13.577603,4.000116,3.89456,-14.353721,-2.933566,0.82294106,-13.82506,-1.8329289,2.9811249,-2.4783216,-0.4834913,9.809501,-18.994244,-1.3025768,0.5006309,-7.1244674,-5.4543324,0.08173123,-4.705045,-5.080711,17.023148,-14.674481,-4.022288,0.35423404,-8.279485,-1.4001529,-3.2721977,-11.4194765,-23.311758,17.70701,-5.848259,10.358193,9.998657,-1.098823,-4.965099,4.929965,-11.880449,-0.09781409,-5.6284842,-3.9571185
33.38746,-61.205326,-7.6828613,31.052847,4.0099874,-11.149108,-8.541473,8.000825,-15.110192,10.56849,-6.849215,13.170235,3.984467,3.4974825,-14.686148,-2.9355392,0.8232968,-12.751575,-1.854435,2.9826508,-1.3909261,-0.50052226,9.408558,-19.253529,-1.3040044,0.50073636,-7.7837787,-5.396358,0.07609691,-4.1432424,-5.11082,16.448656,-15.686486,-4.042323,0.35739607,-9.166567,-1.3580252,-3.276599,-10.879575,-23.311758,17.70701,-5.848259,10.276461,9.885795,-3.2640507,-5.0080814,4.9391494,-12.873607,-0.05169324,-5.6327267,-3.0422862
32.939724,-61.09006,-6.416711,31.116774,4.849253,-10.717252,-8.584461,8.012724,-14.458627,10.508213,-6.862885,12.457857,4.0284233,4.791279,-13.33863,-2.9346657,0.82314396,-13.224824,-1.8432572,2.9812882,-1.8566353,-0.4635967,10.274676,-18.737236,-1.3019583,0.50057554,-6.8331265,-5.43465,0.079723164,-4.514217,-5.0831695,17.003351,-14.479667,-4.019818,0.35389084,-8.170717,-1.376518,-3.27478,-11.116025,-23.311758,17.70701,-5.848259,10.321273,9.591733,-2.2034962,-4.9287105,4.9226236,-11.044099,-0.1184764,-5.62751,-4.386481
32.956474,-61.09438,-6.464057,31.17818,5.7365365,-10.259594,-8.949328,8.089299,-9.05825,10.982677,-6.7219954,18.653606,4.09951,4.926421,-15.73112,-2.9378,0.82365334,-11.546285,-1.925518,2.9847918,1.7724715,-0.4626459,10.095155,-20.734884,-1.301359,0.50051045,-6.546181,-5.3426385,0.07201363,-3.5805588,-5.122369,16.207287,-16.283304,-4.026359,0.35482234,-8.458897,-1.1816397,-3.2851217,-8.668635,-23.311758,17.70701,-5.848259,10.290544,9.044596,-3.1970208,-4.927851,4.922454,-11.024403,-0.026424296,-5.6292934,-2.5236785
33.89722,-61.19287,-8.893803,31.222391,6.4329495,-9.899629,-8.552087,8.0038185,-14.949067,10.50889,-6.8627324,12.465839,4.0358763,3.2449496,-16.701708,-2.9375625,0.82361794,-11.670447,-1.9237072,2.9847076,1.6942766,-0.49722803,9.244367,-21.663824,-1.3017846,0.50055814,-6.750405,-5.3871713,0.07528417,-4.0543733,-5.164244,15.407414,-17.671618,-4.03013,0.3553924,-8.625411,-1.254555,-3.2835245,-9.572759,-23.311758,17.70701,-5.848259,10.189387,7.596672,-6.341897,-4.9791446,4.9329004,-12.20447,0.03933301,-5.640157,-1.0344683
34.458458,-61.188515,-10.242118,31.177435,5.725207,-10.265449,-8.374635,7.949101,-17.667446,10.3489685,-6.8987556,10.574315,4.0787206,3.4174535,-17.775944,-2.9340305,0.8230293,-13.571349,-1.8625488,2.9848957,-1.0773896,-0.52286816,8.729213,-21.171165,-1.306181,0.50089633,-8.768055,-5.4861917,0.085178345,-5.013844,-5.2124753,14.737519,-16.738167,-4.0846763,0.36615056,-11.094177,-1.4994912,-3.2581625,-12.709962,-23.311758,17.70701,-5.848259,10.182411,7.519044,-6.5508857,-5.0281034,4.9436445,-13.337638,-0.047130175,-5.6321573,-2.9481974
33.27342,-61.175976,-7.3603544,31.204004,6.137014,-10.052672,-8.711213,8.044313,-12.55568,10.926285,-6.742224,17.855375,4.044152,4.0321803,-15.667455,-2.9353552,0.8232645,-12.850378,-1.9127824,2.983489,1.2372968,-0.5031611,9.311469,-19.644262,-1.3054522,0.5008396,-8.440042,-5.3914332,0.07565829,-4.0955935,-5.116485,16.326704,-16.01555,-4.054761,0.35968393,-9.724171,-1.3672956,-3.2757094,-10.997998,-23.311758,17.70701,-5.848259,10.252196,9.271105,-4.1134834,-4.983952,4.9339194,-12.315479,-0.07009841,-5.6312637,-3.4048004
34.006424,-61.188953,-9.151218,31.201822,6.102465,-10.070533,-8.636486,8.026324,-13.674226,10.862889,-6.7716374,16.836658,4.059274,3.0972474,-17.691023,-2.9356441,0.8233135,-12.694376,-1.9449801,2.9801078,2.9582565,-0.5271604,8.772841,-19.766348,-1.3042995,0.5007564,-7.918505,-5.4597054,0.082295835,-4.757138,-5.0999527,16.516048,-16.740911,-4.0397134,0.3569469,-9.050318,-1.4143708,-3.2705042,-11.602691,-23.311758,17.70701,-5.848259,10.218668,9.596989,-4.8693037,-4.905906,4.9181876,-10.522749,0.033398084,-5.6378026,-1.1604095
35.538834,-61.295296,-13.022324,30.964521,2.9671607,-11.684282,-8.49528,7.9873805,-15.813836,10.303305,-6.9089537,10.0335,4.128102,3.204059,-19.74321,-2.93227,0.82267857,-14.532463,-1.8499782,2.981855,-1.5717196,-0.4644102,9.797177,-23.44016,-1.3134367,0.5018114,-12.03695,-5.4314475,0.07940543,-4.4831634,-5.123403,16.054398,-17.65703,-4.120426,0.37559193,-12.788198,-1.6125437,-3.2359066,-14.207144,-23.311758,17.70701,-5.848259,10.274922,9.8419075,-3.3196614,-4.9536695,4.92762,-11.617228,0.0039970353,-5.630185,-1.8360656
33.00768,-61.107555,-6.6088915,31.186209,5.859055,-10.196319,-8.683545,8.037867,-12.968684,10.828983,-6.7897954,16.247576,4.115415,3.7852156,-18.336115,-2.936027,0.8233776,-12.488022,-1.9266014,2.9848242,1.8196228,-0.49216592,9.3194475,-22.040243,-1.3039191,0.5007305,-7.744628,-5.408811,0.0772344,-4.26381,-5.1253138,15.949855,-18.400175,-4.0433993,0.35758418,-9.214581,-1.3239511,-3.2794871,-10.446179,-23.311758,17.70701,-5.848259,10.188471,8.813585,-5.9330254,-4.9664574,4.9302464,-11.91177,-0.04028309,-5.63126,-2.8073707
32.4209,-60.956497,-4.9495416,30.978266,3.1215758,-11.60514,-8.964978,8.091597,-8.832079,11.057133,-6.700662,19.60989,4.1666827,4.581398,-18.647491,-2.9434247,0.82446337,-8.921844,-1.9026604,2.9814062,0.8336849,-0.4345671,10.555009,-22.388739,-1.2996696,0.5002062,-5.6975822,-5.316072,0.07065959,-3.2697203,-5.046038,17.19608,-18.45891,-3.9867384,0.35042542,-6.7103662,-1.1738615,-3.2851334,-8.573022,-23.311758,17.70701,-5.848259,10.236574,10.037288,-4.24722,-4.8827443,4.9137826,-9.996056,-0.05662445,-5.632504,-3.1398325
33.646595,-61.207314,-8.311808,31.118977,4.8796782,-10.701579,-8.426384,7.966076,-16.869553,10.417917,-6.8832736,11.390208,4.0866785,3.7451117,-17.481855,-2.9427514,0.82436466,-9.195328,-1.8885338,2.9792545,0.23823553,-0.4303038,10.758544,-21.249462,-1.3004183,0.5003707,-6.082698,-5.3533187,0.07263225,-3.7079165,-5.1096334,16.190464,-18.471443,-3.9877937,0.35049957,-6.7575693,-1.0967374,-3.3230186,-7.3867917,-23.311758,17.70701,-5.848259,10.16602,8.749,-6.539707,-4.970286,4.9310417,-12.000026,0.039593033,-5.640254,-1.0289963
33.84907,-61.195057,-8.78104,31.164288,5.5281816,-10.36716,-8.394024,7.9555593,-17.368008,10.439,-6.8785253,11.639554,4.113031,3.9422066,-17.995024,-2.9434857,0.82447183,-8.897348,-1.8927946,2.978629,0.4557863,-0.41160798,11.056148,-22.452248,-1.2996255,0.50019425,-5.674452,-5.362484,0.07321389,-3.8159816,-5.1014113,16.250109,-19.170591,-3.9831662,0.3501951,-6.5499535,-1.1095052,-3.316141,-7.587224,-23.311758,17.70701,-5.848259,10.144807,8.412611,-7.210795,-4.9709864,4.931188,-12.016186,0.044866644,-5.642105,-0.9188139
33.174294,-61.15045,-7.080065,31.172176,5.645739,-10.306481,-8.485399,7.984416,-15.964753,10.509226,-6.8626575,12.469794,4.144775,3.6989834,-19.437344,-2.9387307,0.8237908,-11.066921,-1.8854887,2.9869006,-0.081312574,-0.435799,10.395647,-23.788853,-1.301246,0.50049627,-6.4914613,-5.343985,0.07208924,-3.596544,-5.083954,16.44483,-19.973244,-4.0024137,0.35179037,-7.4053903,-1.1525466,-3.2865396,-8.302259,-23.311758,17.70701,-5.848259,10.1382,9.06049,-7.1522026,-5.025335,4.943014,-13.273431,0.009269021,-5.631066,-1.7075555
32.67043,-61.020744,-5.6551723,31.108524,4.736531,-10.775311,-8.755695,8.054149,-11.894503,10.879336,-6.763101,17.117424,4.0798473,3.9776943,-16.878439,-2.9364605,0.823447,-12.254702,-1.8891089,2.978705,0.28020078,-0.47535038,9.764281,-21.260967,-1.3015361,0.50053114,-6.631468,-5.3665757,0.0735454,-3.8554442,-5.093266,16.599737,-16.961794,-4.0173273,0.35355562,-8.061209,-1.2249851,-3.2844973,-9.20441,-23.311758,17.70701,-5.848259,10.290887,10.087554,-2.8172057,-4.949751,4.926825,-11.527103,-0.059382863,-5.632256,-3.1938925
32.61049,-61.005302,-5.485692,31.152384,5.353166,-10.457474,-8.905122,8.0823765,-9.699685,10.9614315,-6.729114,18.361992,4.110033,4.4164877,-17.108276,-2.9379435,0.8236747,-11.471529,-1.922852,2.9846554,1.6575998,-0.47162497,9.767032,-22.085411,-1.3015802,0.50053614,-6.652672,-5.3519034,0.072547704,-3.6909509,-5.131752,15.915818,-17.723494,-4.0268784,0.35489935,-8.481775,-1.1779941,-3.285131,-8.623802,-23.311758,17.70701,-5.848259,10.24367,8.925583,-4.4580064,-4.9291215,4.922705,-11.0534935,-0.037820823,-5.630925,-2.7568362
33.643227,-61.207565,-8.30406,31.144579,5.2403617,-10.515656,-8.730317,8.048618,-12.271281,10.924725,-6.7428436,17.832191,4.103742,3.8088977,-17.920765,-2.9366899,0.82348406,-12.132109,-1.941855,2.982143,2.7320487,-0.5148163,9.0259495,-19.943403,-1.3047869,0.5007912,-8.139773,-5.441196,0.080380455,-4.577683,-5.1023417,16.476454,-16.759554,-4.0465746,0.35815078,-9.356472,-1.3883259,-3.2735262,-11.267454,-23.311758,17.70701,-5.848259,10.24437,9.691387,-4.1675153,-4.9177547,4.920478,-10.793299,0.0024849996,-5.6298876,-1.8734353
33.135406,-61.14044,-6.9700813,31.173306,5.662809,-10.297667,-8.694184,8.040376,-12.809709,10.663586,-6.827581,14.29375,4.0885863,3.8028243,-17.44642,-2.9399805,0.82396984,-10.445934,-1.9160101,2.9839687,1.3698258,-0.45959723,9.985997,-22.567614,-1.300575,0.50039804,-6.1610756,-5.3340564,0.07154767,-3.4792182,-5.148072,15.606964,-18.232706,-4.0096707,0.35259682,-7.7246213,-1.1373783,-3.2982128,-8.04266,-23.311758,17.70701,-5.848259,10.209191,8.421159,-5.533871,-4.9610157,4.9291234,-11.786372,-0.00036739558,-5.629271,-1.9445807
34.457047,-61.188488,-10.238633,31.042185,3.8773599,-11.217257,-8.475307,7.981358,-16.119093,10.353497,-6.8977427,10.627909,4.146968,3.3569338,-20.100992,-2.938416,0.823745,-11.22748,-1.8823214,2.9940712,-0.38688442,-0.42361164,10.61856,-24.28348,-1.3008716,0.5004448,-6.3084307,-5.364374,0.07336652,-3.8342075,-5.0714006,16.572609,-20.668648,-3.996268,0.35119063,-7.134157,-1.1130143,-3.3141115,-7.6431646,-23.311758,17.70701,-5.848259,10.183452,9.017651,-5.9909487,-5.0233245,4.942559,-13.226811,-0.0015872195,-5.628984,-1.9752692
33.065704,-61.122498,-6.772973,31.160742,5.475594,-10.394305,-8.419198,7.9637704,-16.98013,10.372723,-6.8934336,10.855478,4.1628957,4.079123,-19.378593,-2.9370446,0.823539,-11.943716,-1.8873467,2.9802985,0.15410405,-0.44001353,10.278125,-24.049015,-1.3015712,0.50053513,-6.648083,-5.343006,0.07203403,-3.5849202,-5.1054325,16.083542,-20.191452,-4.010924,0.3527463,-7.7797394,-1.1868408,-3.285097,-8.732661,-23.311758,17.70701,-5.848259,10.134788,8.171612,-7.5569987,-5.0759854,4.9550147,-14.449969,0.043729566,-5.641724,-0.942444
33.8071,-61.19719,-8.68314,31.13477,5.100493,-10.587775,-8.445286,7.9720693,-16.579168,10.470526,-6.871409,12.012329,4.0304556,3.1094882,-16.75491,-2.93829,0.82372606,-11.29176,-1.9132614,2.9835663,1.2568333,-0.49875355,9.362557,-20.105408,-1.3013062,0.5005041,-6.520452,-5.4057364,0.076949716,-4.2340283,-5.1459174,15.785981,-16.779156,-4.01713,0.3535306,-8.052529,-1.2539681,-3.2835479,-9.565429,-23.311758,17.70701,-5.848259,10.253391,8.906584,-4.21211,-4.9651494,4.929975,-11.881611,0.009637378,-5.631119,-1.6986778
33.314835,-61.186638,-7.4774723,31.059504,4.0938497,-11.105998,-8.30666,7.9255695,-18.721632,10.263311,-6.9178405,9.559444,4.0174894,2.8542702,-16.768602,-2.937008,0.823534,-11.963381,-1.8472111,2.9815269,-1.687193,-0.4825014,9.581639,-21.523354,-1.3007923,0.5004331,-6.2693105,-5.400043,0.07642923,-4.1789055,-5.098199,16.501648,-17.164705,-4.0114007,0.352804,-7.800689,-1.2081672,-3.284852,-8.99594,-23.311758,17.70701,-5.848259,10.302321,10.476201,-2.381685,-4.979276,4.9329286,-12.207499,-0.11319325,-5.627566,-4.2743096
33.42049,-61.213833,-7.7762585,31.09064,4.4966474,-10.898807,-8.343697,7.9385653,-18.146408,10.277573,-6.914678,9.728533,4.0528226,3.6907318,-16.499487,-2.9418755,0.8242388,-9.5695305,-1.8769691,2.9911256,-0.5645492,-0.4670993,10.037238,-20.32549,-1.3000169,0.50029,-5.878414,-5.350902,0.07248841,-3.678963,-5.163151,15.418424,-17.73421,-3.995229,0.3510968,-7.0881844,-1.0995196,-3.3215852,-7.4300647,-23.311758,17.70701,-5.848259,10.211707,7.8720617,-5.6637015,-5.0314746,4.944416,-13.41584,0.054854743,-5.639038,-0.583179
33.406025,-61.210106,-7.735363,31.121038,4.9081864,-10.686884,-8.280704,7.91622,-19.125984,10.311412,-6.907147,10.129542,4.113283,3.4566548,-18.824423,-2.9405618,0.824052,-10.1683235,-1.8822858,2.9940505,-0.3880451,-0.44753742,10.161265,-23.525812,-1.3006144,0.5004048,-6.1809597,-5.3437634,0.07207669,-3.593901,-5.09804,16.212612,-20.069689,-3.9937432,0.35096735,-7.022331,-1.1547018,-3.285033,-8.338183,-23.311758,17.70701,-5.848259,10.153494,8.648899,-6.9009533,-5.089193,4.958315,-14.757283,0.08795693,-5.6334453,0.1640107
33.4945,-61.219738,-7.9644737,30.982584,3.170652,-11.579977,-8.261334,7.9091086,-19.42831,10.192185,-6.9335237,8.715117,4.0419035,2.8293002,-17.58548,-2.9356847,0.8233206,-12.672573,-1.8197517,2.981841,-3.1462114,-0.48124957,9.558648,-22.049484,-1.3034852,0.50070006,-7.545778,-5.4884925,0.08543624,-5.03613,-5.0850167,16.749311,-16.767588,-4.0392804,0.3568732,-9.031066,-1.3461994,-3.2776694,-10.728824,-23.311758,17.70701,-5.848259,10.330425,10.984926,-1.4701141,-4.98122,4.933339,-12.252385,-0.17283955,-5.625093,-5.5571246
34.759365,-61.202675,-10.991469,31.01636,3.5641608,-11.378097,-8.436371,7.969257,-16.716036,10.2453375,-6.9218206,9.346241,4.129089,3.231538,-19.728148,-2.9316869,0.8225548,-14.850854,-1.8466413,2.9814756,-1.711288,-0.4682113,9.56526,-25.00135,-1.3082674,0.5010936,-9.701393,-5.358421,0.07294306,-3.7692418,-5.1167297,16.091673,-18.338585,-4.081124,0.365313,-10.9292345,-1.4042089,-3.2717252,-11.47169,-23.311758,17.70701,-5.848259,10.551171,11.939817,4.609881,-5.0565047,4.950279,-13.99703,-0.17915818,-5.624593,-5.6950936
34.78252,-61.20426,-11.049915,30.946386,2.7676349,-11.786492,-8.360131,7.9442,-17.891806,10.276674,-6.9148784,9.717878,4.0823894,3.038254,-18.534573,-2.9333858,0.8229058,-13.923307,-1.8341744,2.9809642,-2.3988566,-0.47992218,9.541259,-22.537167,-1.3092763,0.50120836,-10.152704,-5.4434533,0.08060932,-4.599562,-5.125335,16.123165,-16.659075,-4.083807,0.36594433,-11.053805,-1.5149188,-3.2555199,-12.912522,-23.311758,17.70701,-5.848259,10.358042,10.250817,-1.0130719,-4.9658837,4.930127,-11.898546,-0.09364075,-5.6289225,-3.8733134
33.49879,-61.21935,-7.974201,31.003119,3.4078708,-11.4583025,-8.2748375,7.9140754,-19.21748,10.220997,-6.9271903,9.057373,4.028813,2.6121886,-17.531904,-2.9353113,0.8232573,-12.874197,-1.82247,2.981493,-3.005497,-0.4905666,9.362617,-21.95674,-1.3031746,0.5006776,-7.4023547,-5.4707017,0.08347277,-4.863734,-5.086091,16.710802,-16.984499,-4.0338926,0.35598463,-8.791866,-1.3495603,-3.2773726,-10.77163,-23.311758,17.70701,-5.848259,10.284908,10.784719,-2.7247665,-4.9633183,4.9295974,-11.839434,-0.11945508,-5.6274962,-4.407291
33.681644,-61.204845,-8.39246,30.97782,3.1165233,-11.607726,-8.362783,7.9451,-17.850723,10.200767,-6.9316406,8.817087,4.0667505,3.0352633,-18.035091,-2.935388,0.8232709,-12.833152,-1.8368924,2.980791,-2.229501,-0.46809292,9.798611,-22.569815,-1.3031638,0.50067663,-7.3975577,-5.467333,0.08310911,-4.831084,-5.063409,17.073412,-16.939892,-4.0381064,0.35667592,-8.978869,-1.2711341,-3.2827842,-9.780288,-23.311758,17.70701,-5.848259,10.41218,11.669606,0.899182,-5.004443,4.9383473,-12.78937,-0.19940782,-5.622687,-6.1398883
33.65849,-61.206467,-8.339133,30.943478,2.7359805,-11.802703,-8.29381,7.9209647,-18.921673,10.164839,-6.939499,8.389999,4.068616,2.9501517,-18.23897,-2.9356565,0.8233161,-12.687548,-1.823067,2.9814343,-2.9750707,-0.47175717,9.684723,-22.918701,-1.303302,0.5006865,-7.461416,-5.481359,0.084640205,-4.967023,-5.08307,16.742735,-17.143293,-4.0409794,0.35716337,-9.1066885,-1.3203626,-3.279757,-10.40071,-23.311758,17.70701,-5.848259,10.371225,11.145491,-0.35215265,-5.0057726,4.93864,-12.820147,-0.18849504,-5.6237707,-5.899689
33.777767,-61.1988,-8.614907,31.039076,3.8391004,-11.236914,-8.376793,7.9498286,-17.63409,10.303469,-6.908916,10.035448,4.0740957,3.4744146,-17.532732,-2.9356947,0.8233223,-12.667058,-1.8916888,2.9782767,0.41427988,-0.44751358,10.154954,-23.598381,-1.3003612,0.50036,-6.053939,-5.444716,0.08073808,-4.6118026,-5.058886,17.015388,-18.237867,-4.0109386,0.3527481,-7.7803755,-1.155387,-3.2850397,-8.346566,-23.311758,17.70701,-5.848259,10.52868,11.839648,3.9892929,-4.9853425,4.934215,-12.347617,-0.22384045,-5.6197996,-6.681863
33.670506,-61.20561,-8.3668,30.976542,3.1020732,-11.615134,-8.340037,7.9372993,-18.203154,10.1662655,-6.9391875,8.406974,4.076752,3.0746524,-18.290545,-2.9356394,0.82331324,-12.696722,-1.8344781,2.9809332,-2.3796387,-0.46289122,9.858254,-23.148819,-1.3031621,0.5006767,-7.396674,-5.460282,0.08235678,-4.7627287,-5.0629244,17.040962,-17.343267,-4.0381846,0.35668916,-8.982365,-1.2681319,-3.2829285,-9.742653,-23.311758,17.70701,-5.848259,10.405838,11.685245,0.7398097,-5.0057583,4.9386373,-12.81982,-0.19476357,-5.623164,-6.0375257
33.621742,-61.20916,-8.2547455,31.044546,3.906528,-11.202273,-8.350849,7.9410276,-18.035545,10.344322,-6.899797,10.519285,4.086847,3.064027,-18.63515,-2.9364605,0.8234477,-12.254772,-1.8671782,2.986603,-0.906917,-0.45922744,9.877973,-23.794525,-1.3016464,0.5005434,-6.6844807,-5.412666,0.07759486,-4.30115,-5.064531,16.849596,-19.001144,-4.013225,0.35302895,-7.880889,-1.2183887,-3.2846534,-9.122553,-23.311758,17.70701,-5.848259,10.336915,11.392632,-1.1563619,-5.0046043,4.938383,-12.79309,-0.15031707,-5.626505,-5.068537
33.284374,-61.178795,-7.391343,31.07504,4.2925334,-11.003833,-8.363553,7.9453626,-17.838848,10.296162,-6.9105453,9.948841,4.172938,3.5629475,-20.604073,-2.9357376,0.82332945,-12.64384,-1.8466363,2.9814754,-1.7114989,-0.47021544,9.326801,-27.014816,-1.3022164,0.50060004,-6.9551997,-5.399051,0.07633945,-4.169313,-5.172394,14.777447,-22.637423,-4.046627,0.35816044,-9.358824,-1.4084492,-3.2712224,-11.52632,-23.311758,17.70701,-5.848259,10.134933,8.250112,-7.5252357,-5.197087,4.988117,-17.274675,0.12856892,-5.6370406,1.1209341
32.858604,-61.069183,-6.1873236,31.071007,4.2405086,-11.030593,-8.239192,7.90085,-19.774586,10.411442,-6.8847346,11.313589,4.1126657,3.4711692,-18.779636,-2.938785,0.82379913,-11.039013,-1.8747346,2.9899912,-0.6406369,-0.47512925,9.355922,-25.59076,-1.3001828,0.5003251,-5.9634743,-5.293612,0.06971496,-3.013444,-5.082455,16.195898,-22.654,-3.9874923,0.3504781,-6.7441006,-1.1731627,-3.285133,-8.564437,-23.311758,17.70701,-5.848259,10.108592,10.0750265,-7.561192,-5.101872,4.9615507,-15.052503,0.13650778,-5.637351,1.3036766
33.932594,-61.191425,-8.976955,30.999924,3.3704467,-11.477506,-8.2907,7.9198422,-18.970104,10.231401,-6.9248986,9.180853,4.1007257,3.0764334,-19.065401,-2.9350886,0.8232186,-12.995299,-1.8321075,2.9812586,-2.5313575,-0.4863063,9.219958,-24.43274,-1.3040035,0.5007361,-7.783319,-5.4929056,0.085934445,-5.078868,-5.164162,15.226701,-19.48697,-4.0483484,0.35847396,-9.4359,-1.4335091,-3.2680588,-11.850103,-23.311758,17.70701,-5.848259,10.224958,8.884865,-4.9589744,-5.062779,4.9517884,-14.142864,0.0113457665,-5.6313505,-1.6576725
33.53742,-61.215965,-8.062027,30.956463,2.8779502,-11.729985,-8.303161,7.9243207,-18.776075,10.130146,-6.947031,7.9769664,4.0293264,2.6545117,-17.477274,-2.9358091,0.8233416,-12.605049,-1.8135684,2.9831095,-3.479327,-0.47184467,9.750327,-22.209541,-1.302691,0.50064045,-7.177876,-5.450806,0.08136451,-4.670859,-5.0611687,17.108532,-16.94228,-4.0325437,0.35576993,-8.73216,-1.2829477,-3.282171,-9.928599,-23.311758,17.70701,-5.848259,10.314979,11.471632,-1.698613,-4.9721446,4.93143,-12.042919,-0.17449647,-5.6249657,-5.5932665
33.664417,-61.20604,-8.352804,30.970924,3.0388045,-11.647565,-8.353424,7.941911,-17.99565,10.164806,-6.939506,8.3896055,4.045122,2.8187487,-17.706074,-2.9357514,0.8233316,-12.636091,-1.8299468,2.9812047,-2.6364253,-0.47190082,9.744055,-22.26236,-1.3028245,0.5006512,-7.240149,-5.4637856,0.08272922,-4.7967,-5.0598264,17.137486,-16.864279,-4.0374117,0.3565598,-8.947995,-1.2769685,-3.2824903,-9.853491,-23.311758,17.70701,-5.848259,10.364553,11.547414,-0.38267833,-4.9931474,4.9358897,-12.52802,-0.19432837,-5.623208,-6.027941
33.654526,-61.206753,-8.330022,30.9494,2.8004384,-11.769692,-8.308787,7.926327,-18.688562,10.114594,-6.9494815,7.7904525,4.0461173,2.583626,-18.134865,-2.9357972,0.8233397,-12.611472,-1.8153868,2.982669,-3.3795168,-0.46848214,9.723478,-23.270794,-1.3024528,0.5006207,-7.0665326,-5.428188,0.07908462,-4.4515667,-5.050396,17.163212,-18.100372,-4.0252347,0.35465664,-8.409277,-1.2646738,-3.283089,-9.699338,-23.311758,17.70701,-5.848259,10.266837,11.531155,-2.9291923,-4.9839673,4.9339223,-12.31584,-0.13132548,-5.6272435,-4.660483
33.743782,-61.20081,-8.536071,30.944254,2.744391,-11.798397,-8.326391,7.932544,-18.414936,10.126997,-6.9477134,7.93942,4.0576887,2.5529845,-18.560839,-2.9357324,0.8233286,-12.646362,-1.8195174,2.9818769,-3.1585104,-0.46780527,9.690179,-23.779608,-1.3027657,0.5006463,-7.212711,-5.422939,0.07857403,-4.400694,-5.0521092,17.073198,-18.728182,-4.0228763,0.3543169,-8.305371,-1.2537851,-3.2835553,-9.563142,-23.311758,17.70701,-5.848259,10.253023,11.528166,-3.2893584,-5.001774,4.9377627,-12.727582,-0.11488468,-5.6275506,-4.3101916
33.477104,-61.22133,-7.925021,30.959377,2.9101644,-11.713481,-8.272274,7.9131393,-19.257494,10.095499,-6.9488425,7.5564213,4.022732,2.551551,-17.439663,-2.9356308,0.8233119,-12.701778,-1.8080673,2.9847622,-3.7901998,-0.474167,9.679202,-22.419172,-1.3026481,0.5006368,-7.15797,-5.434773,0.079735205,-4.5153995,-5.0553746,17.169382,-17.250452,-4.0291667,0.35524446,-8.582824,-1.2841364,-3.2821054,-9.9435425,-23.311758,17.70701,-5.848259,10.280562,11.446759,-2.6022713,-4.959762,4.928866,-11.757498,-0.14417446,-5.626789,-4.9361587
33.815308,-61.19676,-8.702253,30.956923,2.8830237,-11.727388,-8.338469,7.9367557,-18.227486,10.29701,-6.910356,9.958917,4.1437335,3.6866577,-19.424435,-2.936821,0.8235034,-12.062458,-1.8738477,2.9895568,-0.6711633,-0.44997466,9.971649,-24.96646,-1.3020942,0.5005887,-6.8976264,-5.355079,0.07273841,-3.7290306,-5.0582,16.628931,-22.162565,-3.991906,0.35081404,-6.940786,-1.1608719,-3.2850857,-8.413699,-23.311758,17.70701,-5.848259,10.146983,10.9268875,-6.2601466,-5.064859,4.952292,-14.191213,0.01651863,-5.6319127,-1.5351452
34.05013,-61.18779,-9.254935,30.819347,1.4846338,-12.442332,-8.349384,7.9405246,-18.05825,10.063751,-6.9485283,7.167868,4.0523195,2.702368,-18.133478,-2.9358916,0.82335544,-12.561014,-1.8096592,2.9842374,-3.6989267,-0.458874,9.920249,-23.429695,-1.3024921,0.5006238,-7.084866,-5.4324036,0.0794999,-4.492434,-5.042611,17.252605,-18.43476,-4.023062,0.35434347,-8.313589,-1.2555746,-3.283483,-9.585502,-23.311758,17.70701,-5.848259,10.247132,11.66651,-3.3933618,-4.9544263,4.9277744,-11.634647,-0.12451664,-5.627408,-4.5150785
33.722694,-61.202126,-8.487247,30.892326,2.1983905,-12.077779,-8.286433,7.918299,-19.036623,10.082768,-6.9486074,7.400566,4.057618,2.8995001,-17.970713,-2.9355264,0.8232939,-12.758002,-1.8124747,2.9834013,-3.5401042,-0.46254086,9.858672,-23.22603,-1.3025892,0.500632,-7.13036,-5.421902,0.07847382,-4.3906426,-5.039263,17.286724,-18.621681,-4.016863,0.35349506,-8.040772,-1.2503884,-3.2836885,-9.520717,-23.311758,17.70701,-5.848259,10.236296,11.527542,-3.7244756,-4.9736085,4.9317365,-12.076695,-0.10465387,-5.6277523,-4.0949664
33.24176,-61.167816,-7.2708473,31.096876,4.5794864,-10.856177,-8.368462,7.947024,-17.762854,10.300751,-6.9095235,10.0032215,4.1625876,3.77409,-19.893425,-2.9362006,0.8234055,-12.394417,-1.8638031,2.9853294,-1.0306213,-0.46137667,9.667015,-25.519463,-1.3017755,0.50055724,-6.746268,-5.3945622,0.07593621,-4.1258683,-5.1545205,15.189711,-21.359858,-4.032876,0.3558225,-8.746884,-1.3050603,-3.2808313,-10.207185,-23.311758,17.70701,-5.848259,10.134927,7.9947686,-7.616251,-5.138474,4.9712834,-15.905641,0.09000438,-5.6346,0.21141884
33.65329,-61.20683,-8.3272085,31.07752,4.3246083,-10.987334,-8.383596,7.952102,-17.529001,10.317194,-6.905859,10.198021,4.152791,3.5591767,-19.942278,-2.9348822,0.8231833,-13.107529,-1.8491588,2.9817443,-1.6056471,-0.4742521,9.329894,-26.06231,-1.3036305,0.50071025,-7.6125407,-5.4610047,0.08243328,-4.7697334,-5.185324,14.694212,-21.44631,-4.052513,0.35925287,-9.6229515,-1.4435093,-3.266705,-11.979743,-23.311758,17.70701,-5.848259,10.169421,8.070028,-6.692656,-5.1325727,4.969674,-15.768019,0.08097961,-5.629666,0.009387648
33.36004,-61.19827,-7.6053123,31.06322,4.140883,-11.081822,-8.315857,7.9288354,-18.57861,10.302834,-6.909059,10.0279045,4.1011024,3.1873295,-18.887835,-2.9358673,0.82335114,-12.573605,-1.8406289,2.9809418,-2.0059237,-0.4815054,9.376054,-23.906384,-1.3025978,0.500633,-7.1342483,-5.417998,0.07809961,-4.3528104,-5.1037774,16.174162,-19.553217,-4.0272837,0.35496026,-8.499716,-1.3137469,-3.280236,-10.316966,-23.311758,17.70701,-5.848259,10.195194,9.795883,-5.408874,-5.054954,4.9499097,-13.961016,-0.0018014386,-5.628932,-1.9806757
34.382095,-61.186775,-10.054939,31.002226,3.3973794,-11.463685,-8.306232,7.925417,-18.728292,10.251033,-6.920561,9.413808,4.1065245,3.193043,-19.054733,-2.9340153,0.82302547,-13.579382,-1.8322124,2.9812403,-2.5245569,-0.4868821,9.229117,-24.20399,-1.3073657,0.5010022,-9.298286,-5.5055385,0.08738452,-5.201167,-5.190921,14.860446,-18.921728,-4.069682,0.36274165,-10.402107,-1.5071021,-3.2568743,-12.809821,-23.311758,17.70701,-5.848259,10.257763,8.580629,-4.214336,-5.0412135,4.9466686,-13.641864,0.0081817135,-5.630903,-1.7338372
33.56666,-61.21351,-8.128719,30.950508,2.8125405,-11.763496,-8.231419,7.8979163,-19.896324,10.1696415,-6.938452,8.44713,4.0627966,2.850405,-18.220388,-2.935677,0.8233199,-12.676458,-1.81264,2.9833562,-3.5308888,-0.4779526,9.542268,-22.981913,-1.3036795,0.5007137,-7.635103,-5.4894743,0.08554654,-5.0456343,-5.1027665,16.398607,-17.474749,-4.037299,0.35654134,-8.942989,-1.3534447,-3.2770224,-10.821144,-23.311758,17.70701,-5.848259,10.323628,10.666489,-1.7600173,-5.011361,4.9398756,-12.949562,-0.1573171,-5.6261287,-5.21985
33.469402,-61.222057,-7.9075537,31.104757,4.685451,-10.801616,-8.288452,7.9190307,-19.0052,10.204613,-6.9307947,8.862795,4.156443,3.4362404,-20.276926,-2.9356074,0.82330716,-12.714367,-1.8344979,2.9809308,-2.3783941,-0.4786011,9.160892,-26.808012,-1.301588,0.500537,-6.6564765,-5.4089146,0.07724406,-4.264814,-5.1916566,14.537995,-21.999723,-4.043412,0.3575868,-9.215124,-1.4088141,-3.2711787,-11.531024,-23.311758,17.70701,-5.848259,10.126568,7.725227,-7.9294734,-5.152307,4.9751153,-16.228415,0.116321705,-5.637415,0.813407
33.67137,-61.205555,-8.368801,31.087393,4.4537683,-10.920879,-8.366211,7.946263,-17.797714,10.27695,-6.914816,9.721144,4.154668,3.4109414,-20.26214,-2.9350367,0.82320976,-13.023414,-1.8443382,2.9813263,-1.8097932,-0.4717208,9.339231,-26.544813,-1.3040521,0.5007396,-7.8055997,-5.4403048,0.080290124,-4.569032,-5.1858044,14.63594,-21.945892,-4.0524335,0.35923737,-9.619347,-1.4400454,-3.2671797,-11.93481,-23.311758,17.70701,-5.848259,10.161698,8.0021305,-6.9175887,-5.1730227,4.981015,-16.712143,0.10261916,-5.6377435,0.49802476
33.373203,-61.201664,-7.642519,31.08442,4.4147115,-10.940978,-8.290526,7.919782,-18.972847,10.303944,-6.9088116,10.041072,4.132944,3.2892516,-19.75524,-2.9377012,0.82363904,-11.597612,-1.8680618,2.9869616,-0.8750354,-0.46540558,9.633839,-24.932251,-1.3015201,0.50052935,-6.6239076,-5.3275876,0.07121448,-3.4034219,-5.056761,16.70762,-21.613785,-3.9959767,0.35116416,-7.121274,-1.1936469,-3.2850437,-8.816554,-23.311758,17.70701,-5.848259,10.127004,10.323327,-6.9942517,-5.110262,4.9637303,-15.24793,0.0653063,-5.630669,-0.22793466
34.000294,-61.189125,-9.13673,30.979437,3.1348271,-11.598343,-8.343676,7.938558,-18.14674,10.182903,-6.935554,8.604816,4.1345687,3.1915562,-19.978336,-2.934565,0.82312644,-13.279839,-1.8323767,2.9812124,-2.5139194,-0.47005546,9.443618,-25.846653,-1.3034878,0.50070035,-7.5469937,-5.4561973,0.08192639,-4.72313,-5.1329775,15.518257,-21.47569,-4.0364556,0.3564015,-8.905555,-1.362555,-3.2761698,-10.937413,-23.311758,17.70701,-5.848259,10.160041,9.46423,-6.4407506,-5.1271024,4.9681964,-15.640434,0.06845831,-5.6300154,-0.18796706
33.803463,-61.19739,-8.674658,30.971434,3.044414,-11.644691,-8.310179,7.9268203,-18.666882,10.150014,-6.9427257,8.213568,4.121432,3.217724,-19.500162,-2.935423,0.8232765,-12.814055,-1.8332987,2.9810717,-2.4545968,-0.46903956,9.571566,-24.742771,-1.3018063,0.50056046,-6.7608376,-5.409909,0.077336565,-4.2744374,-5.0890055,16.32653,-20.353928,-4.025437,0.35468644,-8.418218,-1.2974523,-3.2813203,-10.111195,-23.311758,17.70701,-5.848259,10.167453,10.114355,-6.0169673,-5.078317,4.9555926,-14.5041895,0.026219942,-5.634564,-1.3155044
33.885204,-61.19339,-8.8656225,30.879927,2.0728793,-12.141942,-8.334521,7.9353857,-18.288738,10.110832,-6.949328,7.7443185,4.074582,2.8248465,-18.644966,-2.9360328,0.8233783,-12.48469,-1.8188009,2.9819932,-3.1962624,-0.46022224,9.838116,-23.984081,-1.3023582,0.50061226,-7.022116,-5.4090967,0.077260986,-4.266571,-5.044359,17.141125,-19.268879,-4.0169854,0.35351092,-8.046155,-1.2369949,-3.2841554,-9.353738,-23.311758,17.70701,-5.848259,10.229546,11.543747,-3.8942316,-4.990731,4.9353685,-12.472146,-0.094065554,-5.628878,-3.8818338
33.79714,-61.19773,-8.659941,30.992329,3.2823977,-11.522674,-8.290659,7.9198275,-18.970766,10.166821,-6.9390664,8.413587,4.1194797,3.24486,-19.389404,-2.935638,0.8233131,-12.697842,-1.8320098,2.981276,-2.5376954,-0.47345483,9.476903,-24.7129,-1.3018805,0.50056803,-6.7961,-5.436403,0.079897985,-4.531199,-5.125371,15.770986,-20.167833,-4.030696,0.35548013,-8.650399,-1.3309557,-3.2789426,-10.53503,-23.311758,17.70701,-5.848259,10.179598,9.356386,-5.9707093,-5.0828204,4.956714,-14.608973,0.033315115,-5.637768,-1.1621855
32.536198,-60.98618,-5.275602,31.02321,3.646214,-11.335971,-9.462966,8.129178,-1.6848987,10.665529,-6.8271394,14.316696,5.2350545,6.757747,-56.111694,-2.849615,0.6809206,-104.801285,-0.91433936,2.488089,-53.540497,-0.18485129,12.590829,-60.23983,-1.404382,0.644846,-103.62243,-9.464821,2.3494256,-53.662663,-4.7753596,16.784971,-63.576473,-5.077463,1.9201872,-103.56738,-4.1974764,-1.3539307,-57.269516,-23.311758,17.70701,-5.848259,8.11497,4.38331,-61.416443,-6.9970016,7.7456703,-96.44118,-1.8293617,-4.796618,-47.025963
32.116657,-60.87817,-4.0891914,31.249819,6.8926997,-9.661635,-9.529683,8.132397,-0.6090375,10.594147,-6.843386,13.473377,5.231581,6.7511,-55.969078,-2.8496308,0.6756849,-107.22877,-0.8395794,2.3664613,-60.220993,-0.18662608,12.5726595,-59.919476,-1.404815,0.6495865,-106.08114,-9.684128,2.6764152,-57.731533,-4.781846,16.79125,-62.53494,-5.0563755,1.9874423,-106.524,-4.316224,-1.1576408,-60.340073,-23.311758,17.70701,-5.848259,8.216683,4.1204615,-58.865566,-6.95561,7.978493,-101.65076,-1.9471323,-4.6636124,-50.989124
32.13554,-60.883038,-4.1425886,31.339556,8.574395,-8.788747,-9.523152,8.132179,-0.71463144,10.556852,-6.8518558,13.032726,5.21131,6.538257,-55.589188,-2.8496351,0.6744604,-107.794495,-0.8051298,2.3020716,-63.758667,-0.20328772,12.224599,-59.648758,-1.4049428,0.6509376,-106.784256,-9.775126,2.826535,-59.54662,-4.797939,16.589693,-62.03622,-5.051302,2.003958,-107.24904,-4.375328,-1.0516508,-61.95068,-23.311758,17.70701,-5.848259,8.265447,3.676055,-57.755817,-6.9361186,8.049802,-103.249146,-2.0076473,-4.5876865,-53.146065
32.340984,-60.935932,-4.723552,31.43551,10.760966,-7.648694,-9.538698,8.132664,-0.4630996,10.478855,-6.869527,12.11081,5.2125,6.0753436,-56.85194,-2.8496304,0.6741476,-107.9387,-0.76892453,2.228743,-67.778305,-0.22339356,11.701765,-60.907413,-1.4049885,0.6514357,-107.0432,-9.863786,2.9828866,-61.405888,-4.8301516,15.949792,-63.308144,-5.051344,2.0139277,-107.691956,-4.4198613,-0.9676688,-63.2042,-23.311758,17.70701,-5.848259,8.240269,2.4041195,-58.862698,-6.9173856,8.108556,-104.56773,-2.0891516,-4.475167,-56.2116
37.038506,-61.71309,-17.314081,30.605042,-0.32429656,-13.362881,-7.9168863,7.765259,-24.88621,8.824298,-6.948867,-7.824231,4.9979887,4.309175,-51.58806,-2.8496218,0.67913055,-105.63599,-0.828656,2.3466268,-61.311325,-0.2884661,10.287137,-60.703785,-1.4041436,0.64236146,-102.33516,-9.855684,2.96814,-61.231785,-4.869512,14.957932,-66.87762,-5.088953,1.8746226,-101.55469,-4.4403563,-0.9277313,-63.7934,-23.311764,17.707014,-5.84826,8.004587,1.3247032,-65.373886,-6.991845,7.7878757,-97.384895,-2.0818894,-4.4857388,-55.930016
32.184685,-60.895687,-4.281572,31.504725,12.6869755,-6.640192,-9.500706,8.131264,-1.0771097,10.341858,-6.900349,10.490098,5.21137,3.6880906,-63.224106,-2.8496294,0.6738615,-108.06889,-0.76020414,2.2102551,-68.790016,-0.27110255,10.297948,-66.41428,-1.4048645,0.65013963,-106.37076,-9.881736,3.0159147,-61.794815,-4.935713,13.659841,-69.32815,-5.0529213,1.9971125,-106.94766,-4.436883,-0.93455935,-63.692986,-23.311758,17.70701,-5.848259,8.022169,-0.05997944,-65.40908,-6.932382,8.062157,-103.52636,-2.1450126,-4.389668,-58.442444
32.17917,-60.894268,-4.2659607,31.491043,12.277492,-6.8549204,-9.454981,8.128653,-1.8132788,10.349976,-6.8985314,10.586214,5.191894,3.446603,-62.94919,-2.8496313,0.6737938,-108.101776,-0.7671173,2.2249355,-67.98677,-0.28100598,10.100581,-66.10533,-1.4048703,0.65018636,-106.39433,-9.871272,2.9966037,-61.567543,-4.9445186,13.539872,-69.14763,-5.0513134,2.0064032,-107.35779,-4.40842,-0.9896028,-62.87872,-23.311758,17.70701,-5.848259,8.010859,-0.127141,-65.72713,-6.9235654,8.090014,-104.151505,-2.1306522,-4.4123955,-57.85746
31.940943,-60.83294,-3.5922928,31.522593,13.246287,-6.3466253,-9.544119,8.132803,-0.37530696,10.297655,-6.910212,9.966536,5.192962,3.3871853,-63.16469,-2.8496342,0.67386246,-108.07111,-0.7466648,2.1809416,-70.39248,-0.28081143,10.112889,-65.98134,-1.4048531,0.6499699,-106.279526,-9.9427595,3.132117,-63.153057,-4.915912,14.099122,-68.10484,-5.0513916,2.024872,-108.17816,-4.443047,-0.9224262,-63.871346,-23.311758,17.70701,-5.848259,8.074072,0.5882244,-63.829235,-6.9138412,8.118863,-104.79921,-2.1839578,-4.325079,-60.074287
32.340454,-60.935795,-4.722037,31.57434,15.048078,-5.398985,-9.60351,8.133248,0.5910138,10.32039,-6.905144,10.235876,5.115659,2.7819169,-61.104694,-2.8496342,0.67391205,-108.0489,-0.7275503,2.1383677,-72.71657,-0.30705225,9.768855,-62.40567,-1.4050133,0.6517418,-107.20271,-10.006104,3.2599351,-64.62966,-4.8197474,16.0399,-64.016655,-5.051407,2.0321906,-108.50311,-4.50382,-0.7984326,-65.67078,-23.311758,17.70701,-5.848259,8.244306,2.7424831,-58.637466,-6.9062777,8.140093,-105.276215,-2.2004874,-4.296228,-60.788815
32.393456,-60.949432,-4.8719416,31.612543,16.592691,-4.584423,-9.53032,8.132419,-0.5987264,10.321531,-6.9048915,10.24938,5.113033,3.1626961,-59.94336,-2.8496342,0.67392635,-108.04157,-0.72362024,2.129446,-73.202965,-0.2984482,10.022374,-61.40905,-1.4050515,0.65211827,-107.39697,-10.013302,3.2749774,-64.80226,-4.7849116,16.741034,-62.55351,-5.051405,2.031977,-108.49362,-4.531836,-0.7384019,-66.52681,-23.311758,17.70701,-5.848259,8.34638,3.7510061,-55.62497,-6.899447,8.158517,-105.690254,-2.224908,-4.251835,-61.8715
32.514885,-60.980698,-5.2153063,31.60623,16.322184,-4.727215,-9.533097,8.132504,-0.5537821,10.276245,-6.91497,9.712818,5.152699,3.6260884,-60.577087,-2.8496332,0.67395115,-108.03057,-0.7246483,2.1317816,-73.07544,-0.29345763,10.078261,-62.234493,-1.4049923,0.6515127,-107.08176,-10.030059,3.310448,-65.20838,-4.7958903,16.469255,-63.50244,-5.051384,2.0255187,-108.2068,-4.5597677,-0.67656684,-67.39827,-23.311758,17.70701,-5.848259,8.29599,3.240417,-57.11664,-6.9032254,8.1484165,-105.46321,-2.2333968,-4.235872,-62.255924
32.57773,-60.996872,-5.3930297,31.52477,13.316439,-6.3097878,-9.531252,8.132447,-0.5836266,10.373531,-6.893251,10.865042,5.191565,5.220302,-58.13289,-2.8496323,0.6742325,-107.90028,-0.7622259,2.2145686,-68.5542,-0.2621137,10.821723,-61.376186,-1.4048989,0.6504279,-106.51709,-9.917906,3.0840347,-62.592915,-4.840725,15.82849,-62.873085,-5.0513096,2.0057776,-107.32987,-4.5017023,-0.80289245,-65.60679,-23.311758,17.70701,-5.848259,8.308565,2.7046309,-56.980175,-6.9191813,8.10325,-104.448616,-2.1758134,-4.3389635,-59.727226
32.667866,-61.020084,-5.6479416,31.495417,12.4066105,-6.7872305,-9.533553,8.132518,-0.5464188,10.311956,-6.907026,10.135998,5.1986394,4.152862,-61.338905,-2.8496323,0.6741581,-107.935715,-0.7570246,2.203435,-69.16303,-0.27831805,10.256923,-64.60246,-1.4047711,0.64911586,-105.84121,-9.972584,3.1913145,-63.839127,-4.9022474,14.483201,-66.48418,-5.051296,2.0032294,-107.21657,-4.5311737,-0.7398441,-66.50637,-23.311758,17.70701,-5.848259,8.137118,1.0905151,-62.01166,-6.9251513,8.085133,-104.04193,-2.1988513,-4.299124,-60.717464
32.569088,-60.99464,-5.3685946,31.543081,13.924666,-5.99018,-9.577171,8.133303,0.16144167,10.3088665,-6.907713,10.099407,5.1982265,4.63108,-60.02382,-2.8496308,0.67414474,-107.9392,-0.74081594,2.168058,-71.09624,-0.27202284,10.487157,-63.181915,-1.404916,0.6506663,-106.64322,-10.00813,3.2641547,-64.678116,-4.8522024,15.441707,-64.85108,-5.051319,2.0015147,-107.14032,-4.5834966,-0.62235785,-68.15359,-23.311758,17.70701,-5.848259,8.230042,2.0613317,-59.250443,-6.916736,8.110447,-104.61029,-2.2236693,-4.2541428,-61.815712
32.63748,-61.012257,-5.5620036,31.546473,14.041303,-5.928856,-9.58244,8.133326,0.24722801,10.255598,-6.9195514,9.467943,5.203113,4.891914,-59.553497,-2.8496323,0.67415714,-107.935936,-0.73715764,2.1599388,-71.53956,-0.26968586,10.575664,-62.60796,-1.4049237,0.6507321,-106.677475,-10.041883,3.3358676,-65.49858,-4.838736,15.728768,-64.13144,-5.0529575,1.9970171,-106.94354,-4.6191535,-0.5377319,-69.31642,-23.311758,17.70701,-5.848259,8.263494,2.632121,-58.17776,-6.916724,8.110497,-104.61135,-2.226507,-4.248849,-61.94359
32.515957,-60.98097,-5.218362,31.572104,14.963963,-5.443288,-9.640909,8.1324,1.2047943,10.242617,-6.92242,9.313997,5.151423,4.49147,-58.18881,-2.8496299,0.67411137,-107.95439,-0.72874147,2.141057,-72.56981,-0.2776376,10.495444,-61.155323,-1.4049695,0.651228,-106.936806,-10.0434265,3.3392036,-65.53661,-4.818628,16.24104,-62.25418,-5.0513496,2.0151045,-107.7442,-4.5937424,-0.5984454,-68.48419,-23.311758,17.70701,-5.848259,8.345812,3.233419,-55.8238,-6.9038844,8.146618,-105.4229,-2.2307231,-4.240932,-62.134377
32.548695,-60.9894,-5.310941,31.59081,15.688283,-5.0616074,-9.606802,8.133211,0.6448566,10.198013,-6.932245,8.784386,5.168692,4.7061515,-58.427933,-2.8496342,0.6740751,-107.97138,-0.7254885,2.1336899,-72.971405,-0.2742144,10.569726,-61.168095,-1.4049675,0.65125424,-106.950836,-10.062947,3.381986,-66.02339,-4.7962775,16.600786,-62.180843,-5.051346,2.0142634,-107.70703,-4.614409,-0.5492215,-69.15971,-23.311758,17.70701,-5.848259,8.3602085,3.6484609,-55.301895,-6.90231,8.150886,-105.518715,-2.243065,-4.217327,-62.699333
32.352028,-60.938774,-4.7547894,31.467796,11.615753,-7.201582,-9.668774,8.131107,1.6658221,10.396648,-6.888065,11.138526,5.112699,3.233804,-59.734894,-2.8496308,0.6741867,-107.92198,-0.745426,2.1782265,-70.54084,-0.29387534,10.021293,-62.971077,-1.4049675,0.651244,-106.942924,-9.954397,3.1550157,-63.418907,-4.9130015,14.4617815,-65.06328,-5.051342,2.0124438,-107.62614,-4.4963617,-0.81409264,-65.44583,-23.311758,17.70701,-5.848259,8.189484,1.5417242,-60.489525,-6.923343,8.0907,-104.16688,-2.1937873,-4.308033,-60.49749
32.68081,-61.023407,-5.684554,31.50096,12.572672,-6.7001467,-9.53237,8.132483,-0.5655714,10.378826,-6.8920646,10.927695,5.201801,4.1746745,-61.4309,-2.8496304,0.6741085,-107.954666,-0.7599533,2.2097178,-68.81947,-0.27428496,10.338607,-64.70808,-1.4048607,0.65003043,-106.31341,-9.908684,3.0664585,-62.387505,-4.9051323,14.368976,-67.144646,-5.0535316,1.995434,-106.87416,-4.496425,-0.8139615,-65.44772,-23.311758,17.70701,-5.848259,8.108449,0.82413197,-62.85162,-6.9307027,8.067594,-103.64836,-2.1768706,-4.3371744,-59.772045
32.380367,-60.94607,-4.8349032,31.490698,12.267531,-6.8601418,-9.509012,8.131632,-0.943082,10.408301,-6.8854394,11.276461,5.177362,4.474033,-59.45807,-2.8496313,0.6741247,-107.94983,-0.7626541,2.2154808,-68.50421,-0.2745372,10.469148,-62.608887,-1.4049122,0.6505173,-106.56467,-9.918382,3.0849464,-62.60357,-4.871978,15.168309,-64.48478,-5.05134,2.011574,-107.587296,-4.4773955,-0.8533459,-64.87906,-23.311758,17.70701,-5.848259,8.21451,2.0372877,-59.662746,-6.920815,8.098348,-104.33856,-2.169315,-4.349894,-59.452606
32.584175,-60.99853,-5.411268,31.454712,11.260942,-7.387267,-9.517715,8.13198,-0.802513,10.448109,-6.876472,11.747264,5.2230697,6.4377513,-56.392845,-2.8496308,0.6745949,-107.73249,-0.78567106,2.2633643,-65.88193,-0.22480595,11.714442,-60.234356,-1.4048913,0.6504081,-106.510315,-9.855261,2.967374,-61.222733,-4.801383,16.536997,-62.021152,-5.0541267,1.9937727,-106.80154,-4.4620647,-0.88448906,-64.42637,-23.311758,17.70701,-5.848259,8.304285,3.5382643,-56.795033,-6.935354,8.052364,-103.306595,-2.1143305,-4.43758,-57.202515
30.048603,-60.34576,1.7589138,30.585358,-0.4729887,-13.438338,-8.679147,8.036821,-13.034467,10.380213,-6.8917556,10.944087,3.6277666,4.0735555,-1.9246904,-2.9276838,0.8215511,-17.018305,-1.5362129,2.928468,-16.42401,-0.61331415,8.60801,-6.7442455,-1.3082688,0.50109404,-9.701759,-6.2074246,0.19272996,-12.44538,-5.3210187,15.293738,-5.3697286,-4.120602,0.37564272,-12.79663,-1.63011,-3.2318463,-14.44239,-23.311758,17.70701,-5.848259,10.884872,14.270449,14.141546,-5.4927807,5.0993896,-24.292122,-0.7415627,-5.4994817,-18.371761
30.732904,-60.521935,-0.17616987,30.322447,-2.2502198,-14.337874,-8.566528,8.007831,-14.730075,9.96446,-6.9528384,5.954779,3.6487212,3.0824394,-4.1391363,-2.9232478,0.8201468,-19.385777,-1.5730803,2.9374585,-14.618249,-0.59883296,8.39735,-9.504157,-1.3128743,0.50171924,-11.7785015,-6.073293,0.16422458,-11.133711,-5.233153,15.363294,-7.854611,-4.172145,0.3923511,-15.330442,-1.598659,-3.2390013,-14.021687,-23.311758,17.70701,-5.848259,10.650237,13.367156,7.6956105,-5.478036,5.092669,-23.936285,-0.6382337,-5.52995,-15.977046
31.762758,-60.787067,-3.0884204,30.704805,0.4711546,-12.958672,-8.586642,8.013311,-14.425672,9.819015,-6.969827,4.1770945,3.7379627,2.8514097,-7.705938,-2.9261856,0.8211105,-17.820969,-1.6363094,2.9674096,-12.239448,-0.57523954,8.332438,-14.01423,-1.3077459,0.5010392,-9.468335,-5.6969876,0.11305909,-7.037885,-5.155979,16.168701,-11.296828,-4.1311107,0.37876242,-13.30554,-1.3401604,-3.2781885,-10.651977,-23.311758,17.70701,-5.848259,10.434591,13.409141,2.1006343,-5.224236,4.9964557,-17.910212,-0.36896032,-5.594657,-10.02154
31.44457,-60.705147,-2.1886253,30.935501,2.6499925,-11.84673,-8.62348,8.023007,-13.86991,10.494613,-6.8659625,12.297094,3.8630633,2.753989,-11.772525,-2.9373207,0.82358146,-11.797689,-1.7591617,2.973002,-5.858729,-0.58055794,8.03462,-15.619965,-1.3005437,0.5003929,-6.145636,-5.5586257,0.093844,-5.7138953,-5.1415462,16.281511,-12.447194,-4.0506783,0.35890597,-9.540435,-1.2263243,-3.284463,-9.221044,-23.311758,17.70701,-5.848259,10.523981,13.647692,4.510395,-5.2429023,5.002392,-18.347786,-0.37694958,-5.593315,-10.211738
31.888544,-60.819447,-3.4441366,30.921824,2.5043054,-11.9213,-8.590156,8.014255,-14.372563,10.719864,-6.8147407,14.958607,3.7901897,2.4190547,-9.945626,-2.9405704,0.8240539,-10.163877,-1.787838,2.9819064,-4.6946106,-0.57924557,8.321448,-13.3557415,-1.2984961,0.49977344,-5.0440283,-5.402407,0.076644436,-4.201798,-5.1500907,16.226505,-11.6434355,-3.98437,0.3502695,-6.6041403,-1.1532043,-3.2859995,-8.313727,-23.311758,17.70701,-5.848259,10.454987,12.111183,2.1693785,-4.878473,4.9129796,-9.899264,-0.20319092,-5.6222816,-6.223432
32.035122,-60.857185,-3.8586192,30.857412,1.8495449,-12.256048,-8.7989235,8.06308,-11.2553835,10.829687,-6.7896338,16.255901,3.739347,2.3921306,-8.429608,-2.9400954,0.8239863,-10.390571,-1.8230484,2.9814355,-2.976009,-0.5743181,8.58978,-12.089263,-1.2994733,0.50015163,-5.5933185,-5.3979363,0.07623875,-4.1585164,-5.149723,16.293503,-11.028633,-3.9849846,0.35030836,-6.631749,-1.1815999,-3.2851217,-8.668146,-23.311758,17.70701,-5.848259,10.459736,11.922451,2.2257311,-4.873984,4.9121375,-9.797691,-0.29727185,-5.6079507,-8.345442
32.60992,-61.00516,-5.48407,30.915089,2.4335303,-11.957517,-8.782177,8.059692,-11.502568,10.641731,-6.832558,14.035568,3.7501907,1.712035,-10.028934,-2.937224,0.8235667,-11.849005,-1.872824,2.9890673,-0.70663035,-0.5454782,9.035487,-13.631945,-1.3029968,0.5006642,-7.3199925,-5.2380366,0.0681223,-2.40436,-5.1296506,16.469187,-12.441536,-4.0205064,0.35398597,-8.201038,-1.1167611,-3.3118763,-7.703314,-23.311758,17.70701,-5.848259,10.346341,12.276736,-0.59685975,-4.903218,4.9176717,-10.461454,-0.079022475,-5.6304026,-3.5815578
32.522377,-60.982628,-5.236499,30.98534,3.2020879,-11.563857,-8.692618,8.0400095,-12.833116,10.657518,-6.8289623,14.222087,3.7724543,2.0047953,-10.175063,-2.9369564,0.8235252,-11.990203,-1.8607588,2.9843163,-1.1448996,-0.580801,8.218721,-13.938726,-1.3021461,0.50059325,-6.922149,-5.322289,0.0709531,-3.3417065,-5.15866,16.032787,-12.239638,-4.012653,0.35295743,-7.8557153,-1.1885732,-3.2850854,-8.754003,-23.311758,17.70701,-5.848259,10.387457,11.145687,0.0699846,-4.9454546,4.925957,-11.428333,-0.16507816,-5.6256447,-5.388184
32.389133,-60.94832,-4.8597226,30.960941,2.927463,-11.7046175,-8.840612,8.071103,-10.642205,10.822097,-6.7913713,16.166233,3.783187,3.125683,-8.599698,-2.9393106,0.8238739,-10.774969,-1.879823,2.9926572,-0.4690357,-0.5585058,8.958772,-11.993671,-1.3008608,0.50044346,-6.303058,-5.3582397,0.07293174,-3.7670543,-5.139488,16.44202,-11.146134,-3.9860456,0.3503781,-6.6793604,-1.1778994,-3.285131,-8.622635,-23.311758,17.70701,-5.848259,10.409538,11.56289,0.7924964,-4.81047,4.9003654,-8.377607,-0.25299513,-5.615589,-7.3361125
33.14452,-61.142788,-6.995852,30.974316,3.07688,-11.628048,-8.791562,8.061604,-11.36399,10.82139,-6.791533,16.157894,3.8756614,3.056814,-11.555074,-2.9386692,0.82378125,-11.097765,-1.9344373,2.9859276,2.2043307,-0.55777264,8.933114,-12.303194,-1.3028729,0.50065446,-7.2626815,-5.346457,0.07222988,-3.62594,-5.0356426,17.990171,-11.980742,-4.000273,0.3515721,-7.3110437,-1.1651396,-3.2851102,-8.465998,-23.311758,17.70701,-5.848259,10.4336605,12.43453,1.7297665,-4.9074054,4.9184756,-10.556946,-0.14667442,-5.6266794,-4.989986
32.942516,-61.09078,-6.424618,31.011692,3.5086732,-11.40658,-8.759419,8.054943,-11.839322,10.784298,-6.8000216,15.719705,3.8026676,2.7296202,-9.787873,-2.940559,0.8240516,-10.169521,-1.9381988,2.9841924,2.4702256,-0.59228134,8.356102,-10.828753,-1.3003492,0.50035757,-6.0480056,-5.280766,0.06925449,-2.8695133,-5.097779,17.142326,-10.653976,-3.9934497,0.35094255,-7.009343,-1.1203314,-3.3096778,-7.76105,-23.311758,17.70701,-5.848259,10.499028,12.5158,3.45867,-4.9620214,4.9293303,-11.80951,-0.16885018,-5.6253853,-5.470212
32.439285,-60.96123,-5.001543,30.941978,2.7197938,-11.810991,-8.761124,8.055305,-11.814053,10.945439,-6.73486,18.13551,3.8837357,3.5220106,-10.952024,-2.939889,0.8239566,-10.490555,-1.8904569,2.9778743,0.3682407,-0.5452813,9.030134,-13.712041,-1.3009839,0.5004616,-6.3634095,-5.4038405,0.07677545,-4.2156734,-5.055935,17.625566,-12.469008,-3.974326,0.3497755,-6.147364,-1.1257207,-3.30623,-7.8489943,-23.311758,17.70701,-5.848259,10.44469,12.330297,1.9795619,-4.8221908,4.9025345,-8.636925,-0.1966902,-5.6229696,-6.0799623
32.727085,-61.035324,-5.815396,31.084675,4.4180465,-10.93926,-8.400649,7.957739,-17.26583,10.774185,-6.8023305,15.6002865,3.886352,2.8383787,-12.477618,-2.9393096,0.823874,-10.7758465,-1.8959293,2.9795852,0.5743413,-0.57243776,8.265434,-15.142535,-1.2995179,0.5001644,-5.6171737,-5.478633,0.08433913,-4.9406023,-5.0597553,17.613256,-11.964277,-3.9821594,0.35013634,-6.5045304,-1.1431366,-3.2939544,-8.14015,-23.311758,17.70701,-5.848259,10.628055,12.285972,6.7333026,-4.960993,4.9291177,-11.785833,-0.18455243,-5.6241293,-5.813192
32.839104,-61.064163,-6.1321697,31.061258,4.115992,-11.094617,-8.441401,7.9708467,-16.638828,10.756622,-6.8063464,15.392814,3.9124727,2.9381955,-13.340066,-2.938816,0.82380295,-11.023643,-1.8940439,2.9790177,0.5028735,-0.54470694,8.752008,-16.251286,-1.2999701,0.50027925,-5.854475,-5.5158925,0.088598385,-5.30133,-5.0403156,17.832996,-12.872012,-3.981251,0.35008544,-6.4634943,-1.1522582,-3.286776,-8.2972355,-23.311758,17.70701,-5.848259,10.590476,12.253147,5.743831,-4.9743514,4.9318914,-12.09381,-0.20832878,-5.6217055,-6.337107
33.07389,-61.12461,-6.7961082,31.049706,3.9707932,-11.169246,-8.50447,7.9901075,-15.673539,10.609026,-6.840003,13.649173,3.893797,2.3746092,-13.723798,-2.93711,0.8235488,-11.90925,-1.8833773,2.992557,-0.30492526,-0.5410025,8.821006,-16.36517,-1.3026015,0.5006331,-7.1360188,-5.4677877,0.083158076,-4.8354897,-5.044395,17.739923,-13.176442,-3.9921906,0.35083753,-6.9534364,-1.2214803,-3.2845829,-9.160905,-23.311758,17.70701,-5.848259,10.538649,11.783947,4.2287097,-4.9864345,4.9344487,-12.372859,-0.24520823,-5.616788,-7.1605697
32.611294,-61.005512,-5.4879637,31.048235,3.9523387,-11.178734,-8.523219,7.995593,-15.387805,10.56075,-6.850974,13.078741,3.8615627,2.4280245,-12.625592,-2.9376035,0.8236246,-11.648975,-1.8857086,2.9861932,-0.055274166,-0.558372,8.573348,-15.153068,-1.3012894,0.5005019,-6.512368,-5.3343062,0.07156071,-3.482158,-5.083605,17.180069,-12.578933,-3.9975579,0.35130948,-7.1911864,-1.1842303,-3.285111,-8.700517,-23.311758,17.70701,-5.848259,10.5166,11.821224,3.6685503,-4.9654765,4.9300437,-11.88914,-0.21419266,-5.621014,-6.4671645
32.804825,-61.055347,-6.035235,31.11469,4.820728,-10.731944,-8.44637,7.972409,-16.562511,10.3775,-6.892362,10.912002,3.9258432,3.058808,-13.576989,-2.934701,0.82315063,-13.205879,-1.8399956,2.980885,-2.043054,-0.5400615,8.758984,-17.135563,-1.30382,0.50072354,-7.699555,-5.5058765,0.08742346,-5.204433,-5.1327953,16.308176,-13.582391,-4.01884,0.35375792,-8.127711,-1.2864091,-3.2819777,-9.972124,-23.311758,17.70701,-5.848259,10.540387,11.378978,4.1298523,-4.9872804,4.934629,-12.392388,-0.2181735,-5.6205244,-6.5556436
32.493378,-60.97516,-5.154501,31.223099,6.444555,-9.893623,-8.570851,8.009023,-14.664605,10.649491,-6.830793,14.127233,4.1308103,3.7337096,-18.922102,-2.9277086,0.821558,-17.00485,-1.8124807,2.9833994,-3.5397658,-0.47720933,9.54541,-23.120995,-1.3202507,0.5031352,-15.319125,-5.3484187,0.07234302,-3.649312,-5.1849194,15.255357,-15.912822,-4.282358,0.42495984,-20.351418,-1.6907079,-3.216599,-15.259086,-23.311758,17.70701,-5.848259,10.228905,8.480935,-5.000055,-5.1786103,4.98264,-16.84271,-0.36710137,-5.5949774,-9.977388
34.98053,-61.22065,-11.554346,31.0595,4.0936418,-11.10611,-8.616281,8.02115,-13.978362,10.581278,-6.8463154,13.321276,4.014723,3.6427891,-15.38658,-2.9330697,0.82284284,-14.095867,-1.8706284,2.988061,-0.78356475,-0.47244024,9.915315,-20.368847,-1.3134537,0.5018143,-12.044648,-5.401918,0.07659964,-4.1970577,-5.1007204,16.585495,-15.91635,-4.1141458,0.37380284,-12.486322,-1.4846386,-3.2605882,-12.515492,-23.311758,17.70701,-5.848259,10.276629,9.72855,-3.315511,-4.936148,4.924096,-11.214612,-0.010019474,-5.62673,-2.1902552
33.555527,-61.214436,-8.103304,31.032442,3.7579083,-11.278615,-8.655794,8.031149,-13.384305,10.541637,-6.85531,12.852883,3.9489784,3.1655247,-14.1324835,-2.9343371,0.82308507,-13.404277,-1.861233,2.9844656,-1.1269258,-0.5014174,9.420457,-18.941095,-1.3039458,0.5007325,-7.7568793,-5.383944,0.07500422,-4.023172,-5.0782514,17.048622,-14.811069,-4.0550885,0.35974735,-9.738977,-1.3400685,-3.2781959,-10.650811,-23.311758,17.70701,-5.848259,10.317881,11.133632,-1.7433771,-4.9538674,4.9276605,-11.621793,-0.095784076,-5.6286983,-3.916325
34.257957,-61.18554,-9.753185,31.010584,3.4956098,-11.413285,-8.566896,8.007934,-14.72451,10.436324,-6.879127,11.607936,4.0539665,3.3817427,-17.046951,-2.9320626,0.8226347,-14.645578,-1.8629217,2.9850225,-1.0634444,-0.47480774,9.708646,-21.963394,-1.3083317,0.5011003,-9.730033,-5.3866134,0.075235546,-4.048979,-5.1004267,16.526196,-16.563034,-4.104539,0.37117165,-12.027969,-1.4855068,-3.2604496,-12.526845,-23.311758,17.70701,-5.848259,10.255799,10.539781,-3.568639,-4.989523,4.9351087,-12.444225,-0.0814449,-5.630163,-3.6297128
33.47854,-61.221214,-7.9282503,31.14385,5.229914,-10.521043,-8.512633,7.9925103,-15.549111,10.504462,-6.8637357,12.413494,4.165875,3.2238877,-20.964327,-2.9228487,0.82000566,-19.597057,-1.8000872,2.987861,-4.2613764,-0.48085153,9.286359,-24.99722,-1.3254621,0.50438154,-18.033264,-5.4951806,0.0861928,-5.1008945,-5.154251,15.391042,-19.41068,-4.3111267,0.43386286,-21.754944,-1.6611108,-3.2242866,-14.859204,-23.311758,17.70701,-5.848259,10.11305,8.798912,-7.899076,-5.183291,4.984013,-16.952093,-0.30437183,-5.6066313,-8.509079
32.716667,-61.03264,-5.7859488,31.243946,6.792339,-9.713612,-8.258628,7.908109,-19.470596,10.154191,-6.9418197,8.263268,4.053227,0.7218316,-21.635292,-2.9129539,0.8157966,-24.831245,-1.8024919,2.9868577,-4.117308,-0.55967224,7.4911313,-25.543509,-1.3312585,0.5060915,-21.158627,-5.441673,0.08042854,-4.5822997,-5.2164035,14.167254,-21.799002,-4.3251786,0.43864077,-22.440378,-1.4039086,-3.2717605,-11.467823,-23.311758,17.70701,-5.848259,9.96908,9.3816395,-11.434882,-5.338962,5.03567,-20.610456,-0.44858277,-5.580576,-11.780541
33.22733,-61.1641,-7.230033,31.084726,4.418719,-10.9389105,-8.766325,8.056404,-11.737038,10.748001,-6.8083167,15.290956,4.062188,4.488344,-15.370561,-2.9346676,0.8231449,-13.224373,-1.8513968,2.982073,-1.5134882,-0.47409236,9.939244,-19.760628,-1.3053112,0.5008293,-8.376502,-5.3727636,0.07405561,-3.9151657,-5.108652,16.53854,-15.120702,-4.059599,0.36063808,-9.942828,-1.3123884,-3.2803319,-10.299785,-23.311758,17.70701,-5.848259,10.359601,9.803189,-1.1317729,-4.990313,4.9352794,-12.462484,-0.09103883,-5.6291924,-3.8211803
33.00579,-61.10708,-6.603552,31.153584,5.3705716,-10.448493,-8.829454,8.069012,-10.806024,10.873965,-6.7658057,17.027256,4.076973,4.6298018,-15.617551,-2.9353805,0.8232689,-12.836944,-1.8855152,2.9868174,-0.07822231,-0.47209203,9.943581,-20.160198,-1.3049779,0.5008044,-8.226193,-5.349343,0.072396874,-3.6603363,-5.112755,16.401062,-15.859235,-4.0564303,0.36000913,-9.799509,-1.2799941,-3.282331,-9.891486,-23.311758,17.70701,-5.848259,10.310733,9.485583,-2.5153172,-4.990088,4.935231,-12.457287,-0.109897055,-5.6275845,-4.204469
33.040886,-61.116116,-6.702775,31.102613,4.6564364,-10.81656,-8.764239,8.0559635,-11.767911,10.792084,-6.7982388,15.81169,4.075776,4.291652,-16.232567,-2.9350967,0.82322097,-12.990857,-1.879626,2.992549,-0.4755645,-0.4684087,9.986231,-20.550877,-1.3035567,0.500705,-7.5786004,-5.3643136,0.073361516,-3.8336256,-5.0928264,16.699598,-16.023226,-4.0392737,0.35687238,-9.030743,-1.2637146,-3.2831328,-9.687324,-23.311758,17.70701,-5.848259,10.32315,10.041864,-1.9946159,-4.9708066,4.931151,-12.012037,-0.09279791,-5.62901,-3.8564172
34.98871,-61.221436,-11.575373,31.042093,3.8762422,-11.217834,-8.543699,8.001454,-15.076436,10.409964,-6.8850694,11.296071,4.1080823,3.718498,-18.212336,-2.9321322,0.82264996,-14.608001,-1.845324,2.9813788,-1.7674067,-0.46474624,9.924752,-22.020052,-1.3131523,0.501765,-11.905957,-5.4560657,0.08191267,-4.7218513,-5.1329436,15.965281,-17.038252,-4.111698,0.37311977,-12.369135,-1.4956739,-3.2587967,-12.65993,-23.311758,17.70701,-5.848259,10.255829,9.122562,-4.071847,-4.946146,4.9260964,-11.444223,-0.045628212,-5.6319647,-2.9172697
34.79448,-61.205105,-11.0801325,31.032537,3.7591224,-11.277991,-8.578048,8.010985,-14.5556345,10.457928,-6.8742585,11.86334,4.1284633,3.7146938,-18.87821,-2.9325895,0.8227463,-14.358442,-1.8516989,2.9821236,-1.5011638,-0.45536888,10.056733,-22.804249,-1.3135254,0.5018268,-12.07783,-5.4461293,0.08088261,-4.625511,-5.1161346,16.152067,-17.82881,-4.1091347,0.3724138,-12.246683,-1.4756308,-3.2620034,-12.397803,-23.311758,17.70701,-5.848259,10.24981,9.440868,-4.1151953,-4.956777,4.9282537,-11.688755,-0.043931253,-5.631744,-2.8823504
35.41462,-61.275005,-12.689789,30.922361,2.5099864,-11.918395,-8.4894705,7.985642,-15.902549,10.177473,-6.9367423,8.5402355,4.0607615,1.9281523,-19.739645,-2.9311733,0.82243943,-15.130451,-1.8188703,2.9819813,-3.1925926,-0.46338463,9.7749195,-23.914497,-1.3156297,0.50219905,-13.06034,-5.4984145,0.086562306,-5.132209,-5.0962543,16.392073,-18.56845,-4.0888195,0.3671505,-11.287365,-1.4772146,-3.2617576,-12.418483,-23.311758,17.70701,-5.848259,10.254862,10.673908,-3.5453627,-5.0258784,4.9431376,-13.286035,0.0008682683,-5.629547,-1.9136564
33.082355,-61.126785,-6.820051,31.096148,4.5698237,-10.861146,-8.615716,8.021,-13.986852,10.645496,-6.8316984,14.080097,4.07215,3.866368,-16.819216,-2.9332027,0.82287,-14.022963,-1.8382349,2.980794,-2.1479294,-0.47940445,9.71436,-20.856089,-1.3059154,0.500875,-8.648756,-5.4264607,0.07891595,-4.434827,-5.099832,16.578676,-16.127508,-4.0523725,0.35922593,-9.616604,-1.325207,-3.2793918,-10.4621,-23.311758,17.70701,-5.848259,10.351011,10.141287,-1.2348522,-5.008128,4.9391594,-12.874685,-0.13789824,-5.627035,-4.801293
32.91105,-61.082684,-6.335621,31.097357,4.5859056,-10.852872,-8.686613,8.038594,-12.922809,10.684589,-6.8227916,14.541901,4.035333,4.5663857,-14.03447,-2.9337525,0.8229761,-13.723192,-1.8510153,2.9820113,-1.5290823,-0.47094285,10.069854,-19.15347,-1.3048139,0.5007928,-8.151897,-5.4176345,0.07806502,-4.3492928,-5.11104,16.50266,-15.102029,-4.0462365,0.3580895,-9.341345,-1.3346963,-3.2786412,-10.58253,-23.311758,17.70701,-5.848259,10.351687,9.573485,-1.4192127,-5.0182967,4.9414244,-13.110264,-0.12025676,-5.6274843,-4.4243464
34.250626,-61.18552,-9.735451,30.958364,2.8989453,-11.719235,-8.472017,7.9803534,-16.16945,10.344993,-6.899647,10.527221,4.058353,2.9713194,-17.87322,-2.9290318,0.8219166,-16.2919,-1.8502245,2.9818904,-1.5615696,-0.4771484,9.564279,-22.93669,-1.3120699,0.50159246,-11.411483,-5.4297557,0.07923849,-4.4667625,-5.1246595,15.964998,-18.352331,-4.1299005,0.3783955,-13.246745,-1.5182852,-3.2549267,-12.956792,-23.311758,17.70701,-5.848259,10.15416,10.563593,-6.2027574,-5.060759,4.9513,-14.095893,-0.13741598,-5.6270514,-4.790948
35.49246,-61.287468,-12.897767,30.994728,3.3101,-11.508459,-8.501585,7.989255,-15.717583,10.311619,-6.9071,10.131995,4.128908,3.8541458,-18.65565,-2.9324284,0.82271266,-14.446234,-1.8354917,2.9808502,-2.316068,-0.4530022,10.127027,-22.613268,-1.3151271,0.5021066,-12.823249,-5.4825363,0.084770694,-4.9784255,-5.142488,15.776708,-17.417181,-4.1352773,0.3800413,-13.508577,-1.5667423,-3.2457304,-13.597037,-23.311758,17.70701,-5.848259,10.244495,8.750875,-4.498735,-4.9471536,4.9263,-11.46738,-0.028603144,-5.6296153,-2.568159
33.29113,-61.18053,-7.410454,31.091478,4.5077376,-10.893102,-8.771242,8.057431,-11.664239,10.778864,-6.8012605,15.655555,4.0729895,4.569409,-15.62762,-2.9352016,0.8232386,-12.933889,-1.8866844,2.9826813,0.06897979,-0.46095872,10.197564,-20.072931,-1.3050506,0.50081015,-8.259002,-5.3595986,0.0730163,-3.7834394,-5.092015,16.727592,-15.869269,-4.0499144,0.35876352,-9.506109,-1.2783338,-3.282419,-9.870631,-23.311758,17.70701,-5.848259,10.301356,9.844051,-2.6316369,-4.970275,4.93104,-11.999778,-0.0742699,-5.6308646,-3.487299
35.159096,-61.239918,-12.016469,30.989431,3.2490506,-11.53977,-8.53475,7.9989104,-15.212407,10.42386,-6.8819394,11.460466,4.134703,3.814234,-18.911482,-2.931131,0.8224292,-15.153534,-1.8338087,2.9810061,-2.4220634,-0.45336223,10.091698,-22.902132,-1.3163576,0.5023358,-13.406268,-5.486191,0.08517811,-5.013829,-5.1092167,16.351587,-16.923279,-4.1624985,0.38896078,-14.849722,-1.6384716,-3.2298567,-14.55461,-23.311758,17.70701,-5.848259,10.277838,9.604693,-3.3282363,-4.970389,4.9310637,-12.002428,-0.09844036,-5.628418,-3.9697127
34.794495,-61.2051,-11.080177,31.030424,3.733378,-11.291217,-8.578444,8.011093,-14.549653,10.508264,-6.8628745,12.458437,4.106566,4.015173,-17.665684,-2.9329305,0.8228148,-14.171792,-1.8424194,2.9811678,-1.9025645,-0.45341754,10.128451,-22.501863,-1.3149884,0.5020818,-12.757781,-5.4682117,0.08320354,-4.839602,-5.119479,16.13328,-17.487669,-4.1302147,0.37849087,-13.261983,-1.5271451,-3.2533374,-13.073447,-23.311758,17.70701,-5.848259,10.258021,9.241114,-3.972748,-4.9663463,4.930223,-11.909214,-0.07880885,-5.6304235,-3.5773156
34.95192,-61.21796,-11.480932,31.004139,3.4197602,-11.4522,-8.598804,8.016559,-14.241923,10.490057,-6.8669953,12.243211,4.1143775,4.0391088,-17.875664,-2.9325986,0.82274675,-14.353157,-1.8445354,2.9813352,-1.8012723,-0.45035887,10.246008,-21.976063,-1.3138969,0.50188965,-12.249547,-5.4333577,0.07959452,-4.5016794,-5.103128,16.446808,-16.933138,-4.1192374,0.3752498,-12.73093,-1.4956439,-3.258802,-12.659537,-23.311758,17.70701,-5.848259,10.279911,9.643559,-3.260474,-4.934813,4.9238305,-11.183985,-0.05433003,-5.6327076,-3.094936
34.94063,-61.21693,-11.452026,30.966448,2.9886098,-11.673295,-8.573558,8.009762,-14.623607,10.481861,-6.8688474,12.146345,4.1062174,4.0602365,-17.579283,-2.9327836,0.8227856,-14.252344,-1.8323157,2.9812226,-2.517859,-0.45523858,10.141259,-21.946495,-1.3152544,0.50213015,-12.883112,-5.460957,0.082428455,-4.769273,-5.1159773,16.324877,-16.115202,-4.150441,0.38489074,-14.252701,-1.6213508,-3.2338912,-14.325002,-23.311758,17.70701,-5.848259,10.302364,9.44599,-2.7469652,-4.966748,4.9303064,-11.918474,-0.09058914,-5.629238,-3.8121793
32.723312,-61.034355,-5.8047185,31.065985,4.1762004,-11.063657,-8.81016,8.0653,-11.089814,10.817942,-6.792321,16.11716,4.084839,4.7976284,-15.452863,-2.9356046,0.8233075,-12.715481,-1.8586795,2.9837017,-1.2244803,-0.45877802,10.241941,-20.110275,-1.3032082,0.50067973,-7.418032,-5.3686295,0.07371363,-3.8752642,-5.096168,16.677147,-15.7154875,-4.0328684,0.35582107,-8.746524,-1.2313724,-3.2843242,-9.283782,-23.311758,17.70701,-5.848259,10.330762,9.905807,-1.8450845,-4.981206,4.9333367,-12.252058,-0.14664087,-5.6266804,-4.989264
32.407764,-60.953117,-4.912401,31.125238,4.9665513,-10.656815,-8.907619,8.0827875,-9.663361,10.936129,-6.7383637,18.000689,4.122301,4.64584,-17.117605,-2.9368362,0.8235066,-12.054497,-1.8886638,2.9791331,0.2476286,-0.46593368,9.875671,-22.260065,-1.3021641,0.50059503,-6.9305453,-5.341292,0.071938574,-3.564597,-5.1192102,16.134283,-17.520247,-4.0308437,0.35550278,-8.6569605,-1.1803377,-3.2851257,-8.652619,-23.311758,17.70701,-5.848259,10.280794,9.466462,-3.3004987,-4.976317,4.9323044,-12.139177,-0.0764809,-5.6306515,-3.531115
35.004135,-61.222958,-11.615038,31.02448,3.6614451,-11.328155,-8.540335,8.000502,-15.127537,10.403964,-6.8864164,11.225138,4.1390333,3.9110591,-18.887472,-2.9322815,0.82268095,-14.526054,-1.8463726,2.9814534,-1.7226827,-0.45457304,10.06434,-22.909105,-1.3147151,0.50203216,-12.630122,-5.4745936,0.08389613,-4.9014616,-5.1321483,15.864981,-18.169287,-4.121869,0.37601084,-12.857811,-1.5086806,-3.2566035,-12.830544,-23.311758,17.70701,-5.848259,10.228213,8.941739,-4.854116,-4.966318,4.9302173,-11.908551,-0.03980615,-5.631195,-2.7975771
34.926987,-61.215702,-11.4171295,30.997343,3.3403888,-11.492926,-8.577219,8.01076,-14.5681715,10.431163,-6.880291,11.546874,4.135245,3.2329838,-19.928688,-2.9297566,0.82210135,-15.899696,-1.8457782,2.9814088,-1.7479869,-0.4689455,9.726272,-23.133635,-1.3138497,0.50188166,-12.227573,-5.4290924,0.079173416,-4.4603386,-5.0908413,16.559519,-17.750063,-4.1104164,0.3727662,-12.3078785,-1.5135287,-3.2557633,-12.894246,-23.311758,17.70701,-5.848259,10.300426,10.524887,-2.4137318,-4.9677835,4.9305215,-11.942335,-0.09589321,-5.6286864,-3.9185185
36.66143,-61.57745,-16.185896,30.556509,-0.6864468,-13.546607,-8.151145,7.86661,-21.158173,9.680988,-6.989454,2.4969518,3.9907436,-0.0029475093,-20.825731,-2.908917,0.8137231,-26.981262,-1.6994936,2.9705503,-8.858726,-0.5951688,7.000814,-22.64954,-1.3347423,0.50733083,-23.03443,-6.3004546,0.21488447,-13.495777,-5.2053127,14.266429,-22.548315,-4.401307,0.46944636,-26.178566,-1.8707073,-3.1620631,-17.753399,-23.311764,17.707014,-5.84826,9.757859,8.986988,-17.066662,-5.715084,5.2209506,-29.871475,-0.7436869,-5.4990125,-18.420422
37.37409,-61.85137,-18.346354,30.515213,-0.98322165,-13.697029,-8.068239,7.832396,-22.470139,9.493158,-6.9872465,0.42481965,4.112684,0.3758691,-24.351984,-2.8929543,0.80369043,-35.82706,-1.5792294,2.939453,-14.347415,-0.5505756,7.5347023,-27.085052,-1.3523772,0.5165344,-32.384056,-6.807091,0.3712294,-18.902864,-5.1256022,15.031874,-27.358265,-4.590175,0.58363646,-36.02138,-2.2775733,-2.994218,-23.484173,-23.311764,17.707014,-5.84826,9.563389,8.032602,-22.462029,-6.0259976,5.4196134,-38.00245,-0.8909482,-5.4536614,-21.81204
34.58186,-61.1929,-10.54714,31.085262,4.4257436,-10.935304,-8.265573,7.9106755,-19.362099,9.935016,-6.955436,5.5951743,4.2160835,2.6746924,-23.677046,-2.911605,0.81512403,-25.547892,-1.751894,2.9727147,-6.2128954,-0.51603615,8.211931,-27.968334,-1.3279521,0.505068,-19.370535,-5.73106,0.11823352,-7.361255,-5.1731715,14.580771,-24.442797,-4.275302,0.42295617,-20.0066,-1.5565795,-3.2477615,-13.462302,-23.311758,17.70701,-5.848259,9.95198,8.963497,-12.028132,-5.3729424,5.0485845,-21.416777,-0.49858958,-5.567931,-12.820904
33.118694,-61.136135,-6.922827,31.232576,6.601174,-9.812575,-8.415703,7.9626412,-17.033928,10.411822,-6.8846507,11.318079,4.1419325,2.5271332,-21.395857,-2.9173112,0.8178115,-22.525639,-1.8022068,2.9869742,-4.1343107,-0.5049859,8.641571,-26.139868,-1.3298223,0.5056294,-20.3817,-5.504125,0.087220326,-5.1874905,-5.168564,14.898182,-22.045738,-4.33888,0.44357127,-23.10928,-1.5567313,-3.2477317,-13.464315,-23.311758,17.70701,-5.848259,10.016676,9.062302,-10.311004,-5.3153005,5.0270376,-20.051077,-0.3839834,-5.592188,-10.379789
33.826046,-61.196194,-8.727304,31.158533,5.4430995,-10.411073,-8.273463,7.9135747,-19.238945,10.18364,-6.935394,8.613567,4.2036057,2.6303074,-23.324179,-2.9173517,0.81782913,-22.504494,-1.8043666,2.986113,-4.0061455,-0.48621452,8.869757,-28.033375,-1.3255761,0.504412,-18.094263,-5.573571,0.095762625,-5.8578076,-5.145829,15.073163,-23.850073,-4.2666144,0.42058867,-19.58154,-1.6290392,-3.2320986,-14.428031,-23.311758,17.70701,-5.848259,10.033007,9.943981,-9.572963,-5.245879,5.003354,-18.417616,-0.34080398,-5.5997486,-9.356813
35.280323,-61.25545,-12.3341465,30.628628,-0.14274082,-13.270704,-8.348448,7.940202,-18.072752,9.854389,-6.9648857,4.609788,3.954238,0.6148055,-18.529129,-2.916916,0.81763864,-22.734398,-1.7504652,2.9727697,-6.285964,-0.57819366,7.587465,-20.470465,-1.3273776,0.50490326,-19.06131,-6.0193367,0.15412112,-10.597319,-5.193443,14.780121,-19.324396,-4.2761974,0.42320746,-20.050459,-1.6698495,-3.2220645,-14.977078,-23.311762,17.707012,-5.84826,9.974997,10.251344,-10.97182,-5.4560657,5.082909,-23.408293,-0.63127863,-5.532786,-15.814149
35.787743,-61.34241,-13.69898,30.503428,-1.0661265,-13.739033,-8.294791,7.9213195,-18.906395,9.799952,-6.9726105,3.943909,3.9281216,-0.40086526,-19.445251,-2.9165893,0.8174939,-22.906914,-1.7460334,2.973179,-6.5201216,-0.6023166,7.042233,-20.663145,-1.3274839,0.50493354,-19.118084,-5.9837995,0.14798464,-10.234533,-5.202018,14.600768,-19.759241,-4.2964964,0.42918748,-21.041483,-1.6457784,-3.2280884,-14.652793,-23.311762,17.707012,-5.84826,9.895655,10.305746,-13.015281,-5.527269,5.1156697,-25.129515,-0.64074755,-5.528885,-16.036024
33.32825,-61.190086,-7.515417,31.052187,4.0016646,-11.153386,-8.676049,8.036078,-13.080838,10.504391,-6.863753,12.412634,3.9655447,2.355303,-15.962079,-2.9316587,0.82254744,-14.8659115,-1.8594122,2.983911,-1.1962922,-0.50483286,9.183768,-20.56669,-1.3099394,0.50129116,-10.449298,-5.292384,0.06966832,-2.9996095,-5.1297274,15.945723,-17.74447,-4.081254,0.3653435,-10.935259,-1.1935277,-3.2850447,-8.8150835,-23.311758,17.70701,-5.848259,10.176954,11.646648,-5.2249866,-5.020108,4.941832,-13.152252,-0.07014058,-5.63126,-3.405634
33.1529,-61.14495,-7.019541,31.049683,3.9704108,-11.169442,-8.582309,8.012142,-14.491181,10.626931,-6.8359294,13.860722,4.1105595,4.4101024,-17.135595,-2.9320483,0.82263184,-14.653879,-1.8702676,2.9879017,-0.79632473,-0.46793485,9.843482,-22.135632,-1.3086519,0.5011359,-9.873042,-5.421119,0.07839836,-4.383054,-5.1710267,15.2370405,-18.302996,-4.078665,0.3647439,-10.815397,-1.556123,-3.2478514,-13.456258,-23.311758,17.70701,-5.848259,10.140689,9.105749,-7.0713778,-5.105144,4.962397,-15.128704,-0.05280272,-5.632842,-3.0650883
33.103714,-61.132275,-6.8804564,31.014322,3.5399747,-11.390509,-8.705757,8.043064,-12.637031,10.596123,-6.842941,13.496692,3.9021306,2.3403552,-14.032422,-2.933631,0.82295275,-13.789423,-1.8675869,2.9867675,-0.8921474,-0.5303428,8.865228,-18.15954,-1.3068,0.50094944,-9.045208,-5.25563,0.06851585,-2.5933652,-5.154564,15.759263,-15.669665,-4.0492015,0.35863143,-9.47414,-1.1458204,-3.2918985,-8.186023,-23.311758,17.70701,-5.848259,10.262394,11.160408,-3.176513,-4.9762473,4.9322896,-12.137579,-0.033373944,-5.630304,-2.6657114
33.374863,-61.202087,-7.647234,30.922384,2.510242,-11.918263,-8.6424885,8.027838,-13.584033,10.534327,-6.8569713,12.766445,3.885116,1.560231,-14.773979,-2.9318457,0.8225882,-14.763981,-1.86426,2.9854925,-1.0136986,-0.55005836,8.428622,-18.205627,-1.3083565,0.5011028,-9.741157,-5.2521467,0.06842994,-2.5556614,-5.178603,15.42633,-15.194425,-4.075804,0.3640942,-10.683335,-1.1713418,-3.285131,-8.54208,-23.311758,17.70701,-5.848259,10.278799,11.010514,-2.8033364,-5.0418115,4.9468083,-13.65575,-0.09081579,-5.6292152,-3.816717
33.135105,-61.14036,-6.9692206,31.077196,4.320357,-10.989516,-8.586871,8.013373,-14.422188,10.475185,-6.8703566,12.067405,4.01016,4.2626576,-13.784249,-2.9333806,0.8229042,-13.926197,-1.8509741,2.9820044,-1.5307713,-0.46312916,10.274993,-18.834137,-1.3039365,0.50073165,-7.7527966,-5.4119616,0.07752864,-4.294321,-5.0718927,17.135817,-14.945616,-4.0281553,0.35509044,-8.538118,-1.3128963,-3.2802958,-10.3062105,-23.311758,17.70701,-5.848259,10.321342,10.352163,-1.9312767,-4.9644055,4.929822,-11.86446,-0.14839312,-5.626599,-5.0270314
32.978554,-61.100063,-6.5265265,31.073805,4.276527,-11.012064,-8.601693,8.0173235,-14.198298,10.399381,-6.887449,11.170881,3.9558187,3.9627173,-12.481351,-2.9336295,0.8229525,-13.790339,-1.8614581,2.9845376,-1.1184266,-0.48230064,10.057376,-16.896856,-1.3040612,0.5007402,-7.8098006,-5.4532604,0.08161944,-4.6946526,-5.064705,17.38743,-13.51835,-4.0102053,0.35266036,-7.7481427,-1.3174049,-3.2799737,-10.363255,-23.311758,17.70701,-5.848259,10.382912,11.019814,-0.09296735,-4.9149623,4.9199357,-10.729471,-0.23916304,-5.617683,-7.02469
33.35822,-61.197803,-7.600155,30.99222,3.2811503,-11.523307,-8.463789,7.9778275,-16.29544,10.371956,-6.8936067,10.84638,4.027766,3.3467638,-16.278511,-2.9341779,0.823056,-13.49065,-1.824583,2.9813128,-2.8985486,-0.47375846,9.883418,-20.398207,-1.3039932,0.50073564,-7.7786546,-5.430388,0.07930088,-4.472898,-5.068942,17.080717,-15.982533,-4.034914,0.35614973,-8.837152,-1.2907882,-3.2817247,-10.027234,-23.311758,17.70701,-5.848259,10.326298,11.001903,-1.5714039,-4.9822526,4.9335585,-12.276218,-0.14681631,-5.6266727,-4.9930434
34.599915,-61.193714,-10.592031,30.983747,3.1838937,-11.573186,-8.540826,8.000641,-15.120055,10.368374,-6.8944073,10.804015,4.089281,3.0784543,-18.689507,-2.9318523,0.82258964,-14.760214,-1.8318801,2.981287,-2.5451684,-0.46264064,9.894002,-22.830122,-1.3119318,0.50157136,-11.348622,-5.4681563,0.08319761,-4.8390617,-5.0811944,16.694569,-17.923422,-4.0790615,0.36483592,-10.833743,-1.4025363,-3.271921,-11.45015,-23.311758,17.70701,-5.848259,10.29193,10.635119,-2.59539,-5.0070124,4.938914,-12.848848,-0.06254528,-5.6319685,-3.255988
34.95286,-61.218044,-11.483356,30.999315,3.363377,-11.481129,-8.468731,7.9793468,-16.219732,10.19276,-6.933396,8.721981,4.1272154,2.4143994,-21.100103,-2.929276,0.82198,-16.16009,-1.8186831,2.982013,-3.202495,-0.47136354,9.450638,-25.471882,-1.3147247,0.5020345,-12.634396,-5.5123796,0.08818403,-5.267359,-5.1239176,15.760831,-20.495111,-4.0875463,0.36684078,-11.227947,-1.5030426,-3.2575653,-12.75654,-23.311758,17.70701,-5.848259,10.242539,9.7319565,-4.200704,-5.112721,4.9643745,-15.305225,-0.005162351,-5.6280584,-2.0661495
34.131027,-61.186275,-9.4478245,30.93047,2.5961356,-11.874299,-8.416166,7.962791,-17.026787,10.151426,-6.9424186,8.230378,4.0271673,1.2682145,-19.783558,-2.9222727,0.819798,-19.902607,-1.7904289,2.983201,-4.6037784,-0.5627656,7.6280313,-23.490597,-1.3195031,0.50297356,-14.943414,-5.7519193,0.12147613,-7.558833,-5.2023187,14.482296,-20.88651,-4.1837597,0.3965854,-15.912256,-1.4725605,-3.2624764,-12.3577385,-23.311758,17.70701,-5.848259,10.072384,9.529268,-8.696687,-5.285299,5.0165067,-19.343882,-0.50593686,-5.566261,-12.978596
35.55141,-61.29746,-13.056189,30.589136,-0.44466838,-13.423968,-8.331542,7.9343467,-18.33495,9.923317,-6.9566054,5.45231,3.913869,0.08738929,-18.131052,-2.918797,0.8184428,-21.74023,-1.7599094,2.9730833,-5.823877,-0.5891268,7.3599014,-20.359648,-1.3240969,0.5040321,-17.309008,-5.903891,0.13596298,-9.380686,-5.186367,14.811255,-20.126158,-4.2547374,0.41752595,-18.998983,-1.575482,-3.243941,-13.713088,-23.311764,17.707014,-5.84826,9.8910055,10.49162,-13.070003,-5.449282,5.0799546,-23.244728,-0.6009924,-5.5433874,-15.109938
35.680695,-61.32108,-13.406276,30.789091,1.2051634,-12.58487,-8.267069,7.911226,-19.338755,9.9909525,-6.9509773,6.2783103,3.9920192,0.76637393,-19.501947,-2.9192567,0.81863284,-21.498081,-1.7737308,2.9761553,-5.226826,-0.5736362,7.4710326,-22.66445,-1.3231881,0.5038094,-16.830517,-5.8218045,0.1269676,-8.421175,-5.182008,14.754797,-21.365744,-4.228909,0.41097373,-17.780766,-1.5029744,-3.2575765,-12.755648,-23.311762,17.707012,-5.84826,9.921842,9.901047,-12.478372,-5.3793063,5.051073,-21.56825,-0.547933,-5.557025,-13.901592
36.26261,-61.456562,-15.028835,30.686846,0.3224539,-13.034307,-8.212938,7.890872,-20.186058,9.736137,-6.9820585,3.1646793,4.041073,0.950929,-20.81005,-2.9108658,0.8147459,-25.941767,-1.7207899,2.9806004,-8.029191,-0.5718173,7.518741,-22.584717,-1.3335555,0.5068877,-22.39715,-6.1477313,0.1795419,-11.852515,-5.20532,14.302291,-22.194445,-4.353461,0.4491126,-23.822395,-1.7751569,-3.1923885,-16.412949,-23.311764,17.707014,-5.84826,9.826277,8.666399,-15.401908,-5.610194,5.1583357,-27.17889,-0.66859597,-5.5155883,-16.693144
35.889458,-61.364162,-13.979494,30.807428,1.3735155,-12.499013,-8.317619,7.92946,-18.551252,9.693066,-6.9879646,2.642349,4.117372,1.2268622,-22.918604,-2.9075952,0.81300163,-27.689608,-1.6961651,2.969379,-9.001714,-0.557935,7.5631332,-25.210571,-1.337661,0.508506,-24.592552,-6.206593,0.19254644,-12.435748,-5.199771,14.271398,-23.35936,-4.398785,0.46829098,-26.053516,-1.852032,-3.168384,-17.490376,-23.311764,17.707014,-5.84826,9.867158,7.8217297,-14.639434,-5.654841,5.1836605,-28.308752,-0.68914187,-5.509108,-17.171429
35.59358,-61.304913,-13.169958,30.882036,2.0941043,-12.131087,-8.324185,7.931771,-18.449183,9.642233,-6.993442,2.0354764,4.1343985,1.4181197,-23.156868,-2.9089603,0.81374574,-26.958595,-1.6993439,2.970495,-8.86508,-0.548581,7.722912,-25.676426,-1.3345821,0.50726956,-22.94963,-6.15623,0.18138416,-11.933374,-5.188653,14.398612,-23.833534,-4.356031,0.45011967,-23.948242,-1.830085,-3.1755679,-17.181904,-23.311766,17.707016,-5.848261,9.86603,8.651101,-14.373792,-5.604096,5.1550136,-27.026197,-0.6845355,-5.509771,-17.065937
38.433525,-62.396732,-21.779709,30.71454,0.5528101,-12.917127,-8.006546,7.805737,-23.451817,9.007847,-6.9329677,-4.983629,4.5147777,-1.2107646,-43.84239,-2.866053,0.77622366,-55.138355,-1.452419,2.9063914,-21.066902,-0.5727049,5.1133,-44.754993,-1.390796,0.56071097,-60.49134,-7.693053,0.7741444,-29.085907,-5.297882,10.969707,-40.34966,-4.962064,1.0369313,-62.406887,-2.9565287,-2.6087945,-33.744602,-23.311758,17.70701,-5.848259,9.769922,2.8322916,-18.941635,-6.3916335,5.7706656,-49.366894,-0.97492313,-5.418559,-23.777838
40.83271,-64.21246,-30.486727,29.665546,-5.922362,-16.180212,-6.795897,6.969541,-45.02149,6.868267,-6.209401,-32.873096,5.3280683,7.464063,-58.571995,-2.849609,0.6907673,-100.20861,-1.0123799,2.617446,-45.98603,-0.23519528,10.956147,-68.42157,-1.4038727,0.63951594,-100.85805,-9.155873,1.9538519,-48.478203,-4.819164,15.690159,-67.46275,-5.112257,1.7187998,-94.60709,-3.8544214,-1.8224266,-49.41864,-23.311758,17.70701,-5.848259,10.131269,4.135298,-9.08376,-4.8779426,4.9128795,-9.887271,-0.022833057,-5.6287537,-2.450466
40.18278,-63.646454,-28.009085,29.712551,-5.6476974,-16.043661,-6.837119,7.0098186,-44.17921,6.331459,-5.808682,-40.63079,5.209454,4.8010325,-60.098236,-2.8496227,0.6776962,-106.29882,-0.8880623,2.4480877,-55.734383,-0.2541076,10.42714,-70.18252,-1.4041855,0.6428438,-102.584335,-9.23037,2.0432527,-49.67974,-4.8091097,15.650828,-69.36154,-5.110649,1.7381842,-95.47698,-3.8850513,-1.7855752,-50.0665,-23.311758,17.70701,-5.848259,10.091674,5.0040917,-9.80425,-4.760055,4.890871,-7.280187,0.04009538,-5.6404395,-1.0184345
40.410324,-63.838806,-28.867151,29.872066,-4.6984844,-15.570373,-6.8417287,7.014295,-44.085213,6.253709,-5.7448115,-41.814316,5.1990714,4.8767333,-59.403225,-2.8496265,0.6754751,-107.327324,-0.85673314,2.3965406,-58.567333,-0.26461565,10.216149,-69.87825,-1.4044659,0.6456931,-104.06229,-9.306982,2.1389859,-50.945824,-4.814494,15.638033,-68.669914,-5.1068344,1.7732298,-97.04559,-3.9655404,-1.6844866,-51.814987,-23.311758,17.70701,-5.848259,10.093166,5.5040946,-9.587668,-4.74404,4.887754,-6.938661,0.007814504,-5.6308465,-1.7427381
40.42115,-63.848103,-28.908253,29.879267,-4.6550407,-15.548664,-6.813848,6.9871364,-44.654346,6.2204857,-5.7165146,-42.329422,5.1697793,4.3640456,-59.394905,-2.8496313,0.6743431,-107.84822,-0.83316404,2.3548784,-60.857796,-0.2745849,10.006516,-69.73619,-1.4045346,0.6464849,-104.471436,-9.381604,2.2361586,-52.211037,-4.823945,15.53604,-68.21962,-5.1056347,1.7824118,-97.45566,-4.02303,-1.6082776,-53.106827,-23.311758,17.70701,-5.848259,10.088724,5.6858454,-9.638524,-4.6720767,4.872665,-5.456636,-0.000743784,-5.629184,-1.9540352
40.720657,-64.11128,-30.05377,29.819052,-5.0169077,-15.729377,-6.8782167,7.0494943,-43.342957,5.8794785,-5.3660297,-48.227646,5.1976457,6.809549,-54.264023,-2.8496313,0.67507553,-107.512764,-0.7950323,2.2821927,-64.84952,-0.26310313,10.477077,-66.35906,-1.4044945,0.64604574,-104.244965,-9.460325,2.3431695,-53.583107,-4.8036504,16.377674,-63.20806,-5.1009407,1.8136408,-98.84784,-3.9325442,-1.7266929,-51.08995,-23.311758,17.70701,-5.848259,10.076237,7.2207103,-9.41739,-4.609637,4.870355,-4.099859,0.019865163,-5.6321716,-1.4571432
41.384094,-64.73095,-32.650177,30.075623,-3.6504245,-15.043773,-6.9492636,7.11688,-41.905582,6.0569534,-5.5656343,-44.978497,5.1736846,5.6048465,-56.285904,-2.8496342,0.6741657,-107.93056,-0.77186185,2.2349,-67.4413,-0.30156577,9.532308,-67.91299,-1.4047062,0.64836913,-105.44932,-9.6405115,2.607722,-56.890472,-4.8425927,15.421445,-66.49933,-5.097349,1.8340838,-99.75691,-4.1476536,-1.4303919,-56.040993,-23.311758,17.70701,-5.848259,10.05714,6.503871,-10.16877,-4.6902213,4.8766723,-5.8213964,-0.00304275,-5.628623,-2.0120995
41.43041,-64.77601,-32.83429,29.818624,-5.0194716,-15.730655,-6.9694552,7.1357446,-41.49919,5.9243507,-5.4218917,-47.347885,5.191643,5.157226,-58.304268,-2.8496323,0.6738272,-108.08756,-0.7703245,2.2316828,-67.61746,-0.311741,9.261447,-68.64738,-1.4049504,0.6510082,-106.821625,-9.636735,2.6018636,-56.818436,-4.8802996,14.744934,-67.29074,-5.0859356,1.887459,-102.12253,-4.180103,-1.3809632,-56.837334,-23.311758,17.70701,-5.848259,9.962438,6.281164,-12.710127,-4.789751,4.8965063,-7.92283,0.025652595,-5.634289,-1.3278978
41.16764,-64.52343,-31.794481,29.882643,-4.6346087,-15.538447,-6.962791,7.1295333,-41.633266,5.9637756,-5.4674497,-46.613297,5.142155,4.5005717,-57.72953,-2.8496294,0.6739559,-108.02586,-0.7718933,2.2349672,-67.437546,-0.30215466,9.46808,-68.705284,-1.4048703,0.6501654,-106.38382,-9.584555,2.5223968,-55.836044,-4.857547,15.159427,-66.75259,-5.091358,1.8637831,-101.07439,-4.140907,-1.4404982,-55.877182,-23.311758,17.70701,-5.848259,10.022043,6.1422243,-11.209851,-4.7262044,4.8841968,-6.5629487,-0.004992567,-5.628105,-2.0618
41.191185,-64.54576,-31.88717,29.922401,-4.4254103,-15.433545,-6.933301,7.101871,-42.227688,5.959214,-5.462322,-46.696762,5.1468177,4.954101,-56.74745,-2.8496351,0.67401123,-108.0056,-0.7683075,2.227446,-67.849434,-0.30198157,9.484805,-68.50548,-1.404773,0.6490672,-105.8134,-9.604413,2.5523293,-56.2072,-4.8602543,15.185571,-66.092064,-5.0951023,1.8457549,-100.275024,-4.1499667,-1.4269121,-56.097313,-23.311758,17.70701,-5.848259,10.051065,6.478092,-10.335885,-4.699346,4.87863,-6.007226,-0.0029949173,-5.6286345,-2.010885
41.140846,-64.498085,-31.689138,29.884119,-4.625661,-15.533976,-6.96376,7.1304383,-41.61373,5.921914,-5.4189734,-47.3944,5.15301,4.8496814,-57.311707,-2.8496385,0.6739292,-108.04356,-0.7734135,2.2381387,-67.26405,-0.3011433,9.506513,-68.45443,-1.4048359,0.6497908,-106.18748,-9.552913,2.475465,-55.251213,-4.853787,15.2325325,-66.61946,-5.0913334,1.86393,-101.080925,-4.100017,-1.5005496,-54.896828,-23.311758,17.70701,-5.848259,9.994906,5.8769026,-12.009692,-4.682857,4.8750644,-5.6725655,0.056264393,-5.6364512,-0.49479985
40.962357,-64.331345,-30.990532,29.847368,-4.847227,-15.644678,-6.9211726,7.0904183,-42.472633,5.8975763,-5.3891487,-47.86637,5.1387105,5.000709,-56.248295,-2.8496304,0.6746006,-107.73127,-0.773753,2.2388444,-67.225296,-0.2991792,9.600438,-67.66966,-1.4046986,0.6482957,-105.41433,-9.526428,2.4368703,-54.76763,-4.8463197,15.45748,-65.589325,-5.0977154,1.832104,-99.66876,-4.053215,-1.5668404,-53.80022,-23.311758,17.70701,-5.848259,10.02802,5.991884,-11.107957,-4.6139445,4.8654356,-4.2523403,0.06301092,-5.631152,-0.25676793
41.046967,-64.409935,-31.321001,29.861265,-4.763619,-15.60292,-6.980176,7.1457114,-41.283703,5.9220915,-5.419188,-47.390926,5.186423,5.480903,-57.20307,-2.8496332,0.67421436,-107.90909,-0.772971,2.2372189,-67.31445,-0.2857076,9.857171,-68.2712,-1.4047558,0.6488717,-105.71228,-9.540368,2.4571064,-55.02148,-4.837289,15.463331,-66.8994,-5.0922585,1.8595831,-100.888435,-4.0640874,-1.5516653,-54.052612,-23.311758,17.70701,-5.848259,9.971793,6.1756744,-12.5043955,-4.67668,4.873697,-5.548578,0.0908628,-5.635095,0.23158747
40.994457,-64.36106,-31.115755,29.888924,-4.5966043,-15.519452,-7.0117874,7.1748805,-40.649963,5.958851,-5.461913,-46.70341,5.174562,4.6001067,-58.987804,-2.8496299,0.6738205,-108.08965,-0.7900303,2.2721758,-65.39877,-0.3165747,9.132426,-69.00148,-1.4049523,0.651084,-106.862785,-9.468505,2.3545663,-53.72799,-4.869089,14.877671,-67.71206,-5.085787,1.8880694,-102.149414,-4.099421,-1.5014082,-54.882713,-23.311758,17.70701,-5.848259,9.941786,5.42944,-13.54988,-4.7087398,4.8806086,-6.200134,0.14075652,-5.638617,1.3609923
40.971985,-64.34025,-31.02804,29.877306,-4.666849,-15.554562,-7.007038,7.1705194,-40.74504,5.9562206,-5.458939,-46.751637,5.180658,4.677526,-59.068012,-2.8496313,0.6738157,-108.090126,-0.7926739,2.277491,-65.1076,-0.31788075,9.110681,-68.89427,-1.4049942,0.65142304,-107.03501,-9.447608,2.325556,-53.358727,-4.867694,14.912974,-67.5847,-5.0848484,1.8919222,-102.31975,-4.088183,-1.5175518,-54.617027,-23.311758,17.70701,-5.848259,9.934778,5.422362,-13.734595,-4.7026153,4.879323,-6.07418,0.15722564,-5.6429543,1.59585
40.916687,-64.289246,-30.812693,29.890087,-4.589597,-15.51595,-7.0311065,7.192551,-40.263706,5.9765377,-5.4816165,-46.381775,5.195372,4.825088,-59.367058,-2.8496332,0.67383003,-108.08492,-0.7894018,2.2709107,-65.46806,-0.30185997,9.451875,-69.05593,-1.4049733,0.65126616,-106.95555,-9.454889,2.335624,-53.48706,-4.8543015,15.071358,-68.08918,-5.083803,1.8961165,-102.505005,-4.0714526,-1.541309,-54.224392,-23.311758,17.70701,-5.848259,9.917555,5.6324043,-14.107724,-4.706328,4.880104,-6.1504607,0.16190922,-5.6439514,1.6671036
40.61306,-64.0155,-29.640251,29.957663,-4.252467,-15.346619,-7.0585847,7.2174706,-39.715836,6.055794,-5.564477,-44.9982,5.200028,4.4209914,-60.67714,-2.8496337,0.6738901,-108.05859,-0.8057745,2.3033257,-63.689785,-0.28741372,9.730159,-69.65567,-1.4049466,0.650956,-106.79609,-9.37692,2.2299397,-52.13064,-4.8441405,15.13337,-69.03117,-5.0848885,1.8917525,-102.3124,-4.044193,-1.5793312,-53.591854,-23.311758,17.70701,-5.848259,9.878427,5.214161,-15.273724,-4.7153525,4.8819804,-6.3368945,0.1754204,-5.645849,1.8876966
40.55575,-63.965054,-29.420942,29.94187,-4.3302975,-15.385745,-7.038068,7.1988883,-40.124817,6.055091,-5.563777,-45.01006,5.196343,4.45474,-60.410477,-2.8496323,0.6738386,-108.08087,-0.8041933,2.3002462,-63.858795,-0.28147423,9.857261,-69.70616,-1.4049542,0.6510301,-106.83148,-9.366397,2.21603,-51.95053,-4.8326964,15.358708,-68.59846,-5.0855904,1.8888991,-102.18614,-4.04059,-1.584294,-53.50891,-23.311758,17.70701,-5.848259,9.913967,5.5963387,-14.21386,-4.708981,4.8806596,-6.205123,0.14466509,-5.639738,1.4148023
40.450085,-63.873062,-29.01818,29.970766,-4.1873984,-15.313901,-7.074892,7.23214,-39.39171,6.1043444,-5.6116757,-44.18756,5.218161,4.4746795,-61.396088,-2.8496318,0.67393017,-108.0407,-0.8109501,2.3133316,-63.140614,-0.26995194,10.092032,-69.98655,-1.404918,0.65063316,-106.62613,-9.350995,2.1958158,-51.688087,-4.829851,15.303959,-69.55453,-5.0848923,1.8917487,-102.31215,-4.0161753,-1.6175479,-52.950848,-23.311758,17.70701,-5.848259,9.859056,5.2491255,-15.764915,-4.727622,4.884483,-6.592624,0.17318338,-5.6456633,1.849367
40.44798,-63.871246,-29.010149,29.970156,-4.19044,-15.31543,-7.0388217,7.199572,-40.109726,6.076086,-5.5844893,-44.65641,5.2015033,4.4184604,-60.75428,-2.8496346,0.6738434,-108.07989,-0.81094056,2.3133106,-63.141663,-0.2764703,9.961728,-69.78906,-1.4049523,0.6510499,-106.84362,-9.331687,2.1707194,-51.361115,-4.829238,15.391057,-68.81096,-5.085802,1.8880141,-102.14691,-4.0215034,-1.6103456,-53.07206,-23.311758,17.70701,-5.848259,9.901977,5.542048,-14.544828,-4.6935534,4.8773913,-5.8890696,0.15854436,-5.6432486,1.6156813
40.466206,-63.887012,-29.07947,29.962347,-4.2292666,-15.334954,-7.0655966,7.2237887,-39.576374,6.084321,-5.5924926,-44.518982,5.207167,4.4153457,-61.032627,-2.8496332,0.6738758,-108.06375,-0.8103073,2.3120914,-63.208687,-0.27662146,9.9547415,-69.84582,-1.4049351,0.6508849,-106.759094,-9.338925,2.1800954,-51.48343,-4.832151,15.304849,-69.198105,-5.085121,1.8908007,-102.27022,-4.01876,-1.6140575,-53.009613,-23.311758,17.70701,-5.848259,9.871825,5.2507973,-15.432332,-4.711757,4.8812366,-6.26244,0.1743469,-5.645767,1.869201
39.117947,-62.835564,-24.136564,29.638685,-6.078321,-16.25767,-7.841296,7.729606,-26.101986,8.421961,-6.865798,-12.516448,4.156946,2.0405018,-22.791046,-2.8731866,0.7857256,-48.938885,-1.418551,2.8930218,-22.972763,-0.5552585,7.6182475,-25.2502,-1.3767779,0.5395451,-47.676476,-7.3389997,0.58092725,-24.866888,-5.181525,14.500907,-23.93408,-4.8050966,0.79445094,-49.41609,-2.68507,-2.7835884,-29.548687,-23.311766,17.707016,-5.848261,9.735996,5.9535384,-18.713781,-6.1374483,5.519428,-41.35134,-0.9573169,-5.426383,-23.363064
32.998104,-61.10509,-6.581808,30.152124,-3.2386174,-14.836401,-8.56773,8.008162,-14.711842,9.074418,-6.9900885,-4.255398,3.626844,1.635402,-6.298517,-2.921042,0.8193381,-20.553944,-1.6311467,2.9652348,-12.443559,-0.5860036,8.630683,-9.920031,-1.3146203,0.50201565,-12.585599,-5.783535,0.12442128,-7.929505,-5.182028,16.042664,-8.660331,-4.169432,0.3913855,-15.194998,-1.3673198,-3.275707,-10.998309,-23.311758,17.70701,-5.848259,10.411029,13.251923,1.4320251,-5.226893,4.9972906,-17.972483,-0.4059164,-5.589086,-10.907457
33.31089,-61.185616,-7.4663277,30.547659,-0.75092566,-13.579301,-8.601124,8.017175,-14.2069235,9.779152,-6.9756994,3.689594,3.7379894,2.1537182,-8.7759285,-2.9269357,0.8213351,-17.419844,-1.6868398,2.966753,-9.424354,-0.5554519,9.034523,-11.945099,-1.3105876,0.5013769,-10.740897,-5.6751485,0.10982658,-6.8301263,-5.141163,16.476513,-10.537273,-4.116452,0.37445349,-12.596949,-1.2891443,-3.2818208,-10.00654,-23.311758,17.70701,-5.848259,10.341654,13.297104,-0.35581905,-5.0570464,4.9504094,-14.009609,-0.25208515,-5.6157317,-7.3155694
31.929054,-60.82988,-3.5586872,30.732357,0.70428884,-12.840034,-8.66464,8.0333185,-13.251664,9.773904,-6.976483,3.6254518,3.7047372,3.1960871,-5.595658,-2.9273472,0.8214557,-17.198996,-1.6337216,2.9669394,-12.365323,-0.585673,8.406289,-11.55251,-1.308522,0.50112146,-9.815019,-5.6714377,0.10928418,-6.794788,-5.175671,16.01115,-9.838832,-4.1016774,0.370413,-11.89224,-1.2413678,-3.284013,-9.408207,-23.311758,17.70701,-5.848259,10.457714,12.365064,2.3306038,-5.06135,4.951443,-14.109636,-0.30235025,-5.607009,-8.462435
32.045925,-60.859962,-3.889165,30.975395,3.0891347,-11.621762,-8.72595,8.047646,-12.336253,10.202822,-6.931189,8.841515,3.7262502,3.1191862,-6.563905,-2.9332376,0.8228766,-14.004202,-1.6798172,2.9654417,-9.765353,-0.58747077,8.288122,-12.143299,-1.3040527,0.50074,-7.8058076,-5.490972,0.085715726,-5.0601435,-5.1618557,16.159159,-10.482495,-4.044731,0.3578195,-9.2740135,-1.1575207,-3.285059,-8.37267,-23.311758,17.70701,-5.848259,10.476862,12.362456,2.8276222,-4.9646964,4.929882,-11.8711815,-0.21864536,-5.6204658,-6.5661397
34.517963,-61.190388,-10.388809,30.865519,1.9292654,-12.215328,-8.546278,8.002186,-15.037244,10.080839,-6.948585,7.376943,3.830389,0.802944,-14.331969,-2.9275565,0.8215151,-17.086338,-1.8279481,2.9811869,-2.7325556,-0.59470665,7.522965,-17.533243,-1.3131719,0.50176805,-11.914781,-5.431329,0.079393804,-4.4820156,-5.2457094,14.433682,-14.505889,-4.138607,0.3810796,-13.671286,-1.2907816,-3.281725,-10.02715,-23.311758,17.70701,-5.848259,10.2647915,10.375967,-3.3931544,-5.0892262,4.9583235,-14.75807,-0.30872476,-5.6058154,-8.609659
34.120937,-61.186417,-9.42371,30.81885,1.4799818,-12.444707,-8.533852,7.9986525,-15.226079,10.163212,-6.939855,8.370626,3.9006124,1.7661083,-14.9149,-2.9327674,0.822783,-14.26153,-1.8296363,2.9811974,-2.6512299,-0.5546956,8.288029,-18.590395,-1.3060582,0.50088686,-8.712693,-5.4356575,0.079823375,-4.5239787,-5.2045913,15.0636215,-14.709115,-4.083685,0.36591524,-11.048082,-1.3051634,-3.2808242,-10.208485,-23.311758,17.70701,-5.848259,10.308338,10.569223,-2.1921866,-5.034371,4.945081,-13.483063,-0.15261197,-5.6263885,-5.1180863
33.466045,-61.22237,-7.899969,30.874376,2.0172544,-12.170369,-8.623462,8.023003,-13.870171,10.4331875,-6.8798385,11.570775,3.793316,0.9105204,-13.042044,-2.9312997,0.8224683,-15.061885,-1.866905,2.986494,-0.9168098,-0.57625437,8.103991,-15.847891,-1.3085725,0.5011272,-9.837602,-5.229578,0.06796807,-2.3147273,-5.208704,15.10003,-13.688645,-4.088514,0.36707658,-11.273139,-1.1460882,-3.2916903,-8.190621,-23.311758,17.70701,-5.848259,10.299298,11.184303,-2.2084582,-5.0729985,4.954279,-14.380497,-0.13805908,-5.627029,-4.8047466
33.33557,-61.191975,-7.5361156,30.94635,2.7671514,-11.786744,-8.7368,8.050052,-12.174935,10.491311,-6.86671,12.258049,3.7778816,1.2077906,-12.1076,-2.934236,0.8230665,-13.4593115,-1.8803377,2.9929428,-0.45199963,-0.57012236,8.250234,-15.7389145,-1.3063219,0.50090784,-8.831039,-5.1893344,0.067682706,-1.8935874,-5.185219,15.433103,-14.0689745,-4.058171,0.3603527,-9.87816,-1.116166,-3.3122358,-7.6937294,-23.311758,17.70701,-5.848259,10.277381,11.204739,-2.7710855,-5.002867,4.938002,-12.752884,-0.11614696,-5.6275387,-4.336988
33.99587,-61.189262,-9.126247,30.826797,1.5548681,-12.406493,-8.656445,8.031308,-13.374541,10.399359,-6.8874536,11.17062,3.7809134,0.4820655,-13.356772,-2.9307551,0.82234216,-15.357447,-1.861162,2.984443,-1.1296189,-0.587175,7.8119597,-16.34223,-1.309444,0.50122875,-10.227342,-5.2360654,0.06808434,-2.383396,-5.2124314,14.973939,-14.364266,-4.0952063,0.36874193,-11.586865,-1.1554041,-3.28504,-8.346774,-23.311758,17.70701,-5.848259,10.261051,10.809918,-3.3360999,-5.092651,4.959191,-14.837788,-0.23165417,-5.618748,-6.856404
33.74592,-61.200672,-8.541018,30.889872,2.1733365,-12.09059,-8.690216,8.039445,-12.868984,10.454777,-6.874969,11.826075,3.8052278,1.0073826,-13.243846,-2.9325361,0.82273555,-14.38743,-1.8741295,2.9896939,-0.66144234,-0.57066536,8.16066,-16.456633,-1.3075569,0.5010201,-9.3840065,-5.1952076,0.06761026,-1.9570377,-5.1954513,15.224848,-14.539901,-4.073529,0.3635847,-10.578609,-1.137048,-3.2984507,-8.0371065,-23.311758,17.70701,-5.848259,10.261868,10.770193,-3.3289597,-5.0422893,4.94692,-13.666838,-0.13317454,-5.6271896,-4.7000527
33.466854,-61.222294,-7.901806,30.94887,2.7946792,-11.772641,-8.671528,8.034988,-13.14848,10.560251,-6.851089,13.072833,3.8870711,1.6120112,-14.749829,-2.9335704,0.8229412,-13.822453,-1.8733969,2.9893396,-0.68674856,-0.55238616,8.358429,-18.394348,-1.3061548,0.5008947,-8.756257,-5.214188,0.06774397,-2.1537006,-5.1826744,15.335095,-15.466049,-4.0536423,0.3594677,-9.673756,-1.141964,-3.2948382,-8.120194,-23.311758,17.70701,-5.848259,10.275332,10.683648,-3.009661,-5.006002,4.938691,-12.825464,-0.03061577,-5.629909,-2.6092863
33.7514,-61.20035,-8.553714,31.04413,3.9014516,-11.204883,-8.438591,7.9699574,-16.68192,10.414478,-6.8840513,11.349506,4.018727,2.611696,-17.21154,-2.934874,0.8231815,-13.111685,-1.8553569,2.9828553,-1.3543129,-0.49546993,9.404556,-20.411943,-1.3033779,0.5006928,-7.4964123,-5.4636755,0.082717374,-4.7956276,-5.0607204,17.191437,-16.17574,-4.034752,0.35612315,-8.829985,-1.3429543,-3.2779503,-10.687519,-23.311758,17.70701,-5.848259,10.31521,11.144052,-1.8090733,-4.9590807,4.9287257,-11.741791,-0.1204421,-5.6274815,-4.4282904
34.489468,-61.189426,-10.318483,31.1057,4.698194,-10.795055,-8.50613,7.990598,-15.64823,10.600853,-6.8418584,13.552638,4.0385184,2.2894995,-18.389366,-2.9348722,0.8231809,-13.112843,-1.9125805,2.9834557,1.229069,-0.5245615,8.7835,-20.235378,-1.3068144,0.50095105,-9.051531,-5.500714,0.08682646,-5.1544747,-5.0745354,16.904732,-16.869064,-4.048101,0.35842937,-9.424828,-1.4570858,-3.2647839,-12.156136,-23.311758,17.70701,-5.848259,10.236588,10.582998,-4.052797,-4.92427,4.921751,-10.942363,-0.004563354,-5.6282225,-2.0508223
33.806454,-61.197227,-8.681631,31.015596,3.5550084,-11.382803,-8.523132,7.9955683,-15.389156,10.520357,-6.8601356,12.601372,4.026591,2.5457084,-17.572596,-2.939857,0.82395196,-10.505806,-1.876607,2.9909377,-0.576803,-0.46850646,9.919655,-21.212152,-1.2997061,0.5002154,-5.716771,-5.3351417,0.07160498,-3.491987,-5.0559254,17.106386,-17.795328,-3.9820507,0.35013014,-6.4996405,-1.1320515,-3.3019736,-7.953568,-23.311758,17.70701,-5.848259,10.321371,10.906914,-1.7332505,-4.9230714,4.921516,-10.914933,-0.12271387,-5.627443,-4.4766593
33.480495,-61.221016,-7.932706,31.039583,3.8453488,-11.233704,-8.528877,7.997225,-15.301724,10.640476,-6.8328457,14.020741,4.051344,3.9224703,-16.072004,-2.9368668,0.8235111,-12.038038,-1.8872483,2.9803805,0.1472499,-0.48049045,9.805356,-19.6905,-1.3028854,0.50065565,-7.268474,-5.4155517,0.07786696,-4.3290997,-5.119682,16.212727,-16.656715,-4.0174284,0.3535692,-8.065636,-1.3237038,-3.279506,-10.443044,-23.311758,17.70701,-5.848259,10.222449,9.464804,-4.8179827,-5.005521,4.938585,-12.814312,-0.0013800785,-5.629034,-1.9700478
34.30441,-61.185776,-9.865715,31.010658,3.4965158,-11.412816,-8.521977,7.9952326,-15.406773,10.331354,-6.902696,10.3657255,3.9852085,2.6157172,-16.148102,-2.9355235,0.8232937,-12.759317,-1.8918595,2.9783313,0.4206756,-0.4794526,9.833398,-19.638573,-1.303625,0.50070953,-7.6099725,-5.3420286,0.07197951,-3.5733254,-5.0393043,17.57804,-15.681302,-4.0305986,0.35546476,-8.646128,-1.2077339,-3.2848592,-8.99058,-23.311758,17.70701,-5.848259,10.272461,11.579901,-2.7656143,-4.860744,4.9096675,-9.49892,-0.08632479,-5.629674,-3.7269526
33.97713,-61.189854,-9.081955,31.040903,3.8615117,-11.225404,-8.441236,7.970795,-16.641312,10.450639,-6.8759017,11.77717,4.1363325,4.1018553,-18.476477,-2.9334464,0.8229172,-13.890225,-1.8645523,2.9855986,-1.0029035,-0.47276938,9.62189,-23.345596,-1.3076999,0.5010343,-9.447612,-5.4577746,0.08209206,-4.738418,-5.199892,14.728789,-18.819647,-4.0784154,0.36468714,-10.803876,-1.6253251,-3.232968,-14.378246,-23.311758,17.70701,-5.848259,10.182717,8.009857,-6.368393,-5.111875,4.964153,-15.285521,0.010300852,-5.6312113,-1.6827204
35.792774,-61.343456,-13.712809,31.016794,3.5694098,-11.3754015,-8.43896,7.9700747,-16.67627,10.165598,-6.9393325,8.399039,4.0864725,3.5385773,-17.820919,-2.932468,0.82272077,-14.424621,-1.8346627,2.9809155,-2.368009,-0.48734033,9.569816,-20.548956,-1.311769,0.501547,-11.274804,-5.4816165,0.084668756,-4.96951,-5.201414,15.065179,-15.200122,-4.1090646,0.3723945,-12.243353,-1.5717992,-3.2447002,-13.664163,-23.311758,17.70701,-5.848259,10.277456,7.9366827,-3.9313433,-4.9278765,4.922459,-11.024956,0.00903625,-5.631032,-1.713174
33.579174,-61.212482,-8.157309,31.107656,4.724586,-10.781468,-8.527929,7.9969535,-15.316167,10.539326,-6.8558345,12.825573,4.0750465,2.7923253,-18.715528,-2.935059,0.8232136,-13.011163,-1.8847992,2.9889514,-0.15907189,-0.49536467,9.206337,-22.486813,-1.305048,0.50080967,-8.257736,-5.4462028,0.08089042,-4.6262293,-5.095062,16.436388,-18.314514,-4.037323,0.35654527,-8.9440565,-1.3417602,-3.2780528,-10.672328,-23.311758,17.70701,-5.848259,10.217921,10.100429,-4.7097144,-4.9948134,4.9362493,-12.566544,-0.02804733,-5.629534,-2.556808
34.04617,-61.187885,-9.245497,31.040113,3.851789,-11.230399,-8.439954,7.97039,-16.661068,10.397526,-6.8878655,11.148954,4.129428,3.8609598,-18.660913,-2.9334154,0.8229116,-13.907289,-1.8555093,2.9828904,-1.3482777,-0.46853876,9.607263,-24.483456,-1.3080103,0.50106573,-9.586358,-5.4531465,0.08160749,-4.6935453,-5.191449,14.787218,-19.567465,-4.0879745,0.36694473,-11.247929,-1.5964458,-3.2394848,-13.992165,-23.311758,17.70701,-5.848259,10.179152,8.218067,-6.387049,-5.1150756,4.964994,-15.3601055,-0.0007729605,-5.6291776,-1.9547671
34.418575,-61.187515,-10.144196,30.992918,3.2891154,-11.519229,-8.407332,7.959924,-17.162853,10.261202,-6.9183087,9.53442,4.0993996,3.2870543,-18.662527,-2.9330263,0.82283425,-14.119521,-1.833363,2.981063,-2.4504802,-0.46873093,9.686059,-23.607674,-1.3081841,0.50108445,-9.663855,-5.4347587,0.07973413,-4.5152726,-5.0894613,16.568424,-17.879122,-4.0677752,0.36233252,-10.314915,-1.366467,-3.275791,-10.987405,-23.311758,17.70701,-5.848259,10.457411,11.4455,1.9955913,-5.022369,4.9423428,-13.204672,-0.15586421,-5.626211,-5.1884027
34.011654,-61.1888,-9.163617,30.933462,2.6281066,-11.857932,-8.369006,7.947208,-17.754461,10.134669,-6.946052,8.030853,4.056167,2.6571572,-18.334246,-2.9345164,0.823118,-13.30669,-1.820513,2.98173,-3.1064441,-0.473534,9.629384,-23.089334,-1.304705,0.5007851,-8.102588,-5.4666934,0.08304031,-4.8248835,-5.0648675,16.946445,-17.982983,-4.0370693,0.35650295,-8.93277,-1.2893952,-3.281806,-10.009696,-23.311758,17.70701,-5.848259,10.359427,11.698519,-0.46223336,-5.0356116,4.9453683,-13.511843,-0.17352828,-5.625041,-5.5721426
34.214066,-61.185562,-9.647216,30.742449,0.7913202,-12.79572,-8.346146,7.939409,-18.108412,10.033327,-6.9490447,6.7959275,4.067112,2.5394871,-18.890116,-2.9347072,0.8231518,-13.2025175,-1.7976091,2.9871244,-4.3616705,-0.44583094,10.131983,-24.236856,-1.305243,0.5008239,-8.346058,-5.462834,0.0826277,-4.7874656,-5.031748,17.342588,-19.2455,-4.0243216,0.3545243,-8.369083,-1.2954924,-3.2814417,-10.086488,-23.311758,17.70701,-5.848259,10.226875,11.96492,-3.8138592,-4.9989514,4.937147,-12.662277,-0.11069841,-5.627581,-4.22144
34.759262,-61.202675,-10.991198,30.94782,2.783235,-11.778502,-8.46731,7.9789114,-16.241528,10.135889,-6.945789,8.045392,4.0595756,1.3158305,-20.780766,-2.9313507,0.8224788,-15.033722,-1.8135486,2.983115,-3.4804282,-0.4756385,9.284022,-26.218864,-1.311775,0.5015481,-11.277126,-5.539656,0.09147024,-5.5309396,-5.1402273,15.4774685,-20.74887,-4.0601025,0.3607394,-9.965639,-1.448363,-3.266029,-12.042752,-23.311758,17.70701,-5.848259,10.211952,10.416516,-4.752503,-5.1452417,4.973147,-16.063524,0.037091084,-5.6393013,-1.0818046
34.51007,-61.190113,-10.369322,30.923225,2.5191627,-11.913696,-8.4183445,7.963493,-16.993229,10.200272,-6.9317493,8.81122,4.11238,3.0352051,-19.517982,-2.9284563,0.821764,-16.602125,-1.8529112,2.9823425,-1.4520247,-0.4588709,9.786313,-24.84716,-1.3114452,0.5014986,-11.127777,-5.3749676,0.07423982,-3.9364417,-5.1320724,15.571061,-21.096548,-4.1055136,0.37143177,-12.074219,-1.4841247,-3.2606702,-12.508771,-23.311758,17.70701,-5.848259,10.046183,10.8608055,-8.904324,-5.056335,4.950238,-13.993086,-0.07770822,-5.6305313,-3.5554643
35.200863,-61.245045,-12.125549,31.099157,4.610127,-10.840397,-8.270915,7.9126396,-19.278704,9.873215,-6.962421,4.8399673,4.0950804,1.9915841,-20.771038,-2.9116035,0.8151238,-25.548113,-1.7545376,2.9727113,-6.0807405,-0.51564205,8.375412,-26.44234,-1.330683,0.5059033,-20.84747,-5.6517386,0.10643883,-6.606946,-5.185061,14.42724,-24.108362,-4.289735,0.42713088,-20.711573,-1.4682828,-3.2631264,-12.3019495,-23.311758,17.70701,-5.848259,9.817354,9.742987,-15.251056,-5.3805895,5.051577,-21.598814,-0.4153994,-5.5867844,-11.116962
33.767654,-61.199383,-8.591424,30.85307,1.8071207,-12.277715,-8.475953,7.9815545,-16.109211,10.284199,-6.9132066,9.807087,4.015436,2.4070933,-17.449379,-2.9235606,0.8202555,-19.219616,-1.8150616,2.9827437,-3.3972476,-0.468302,9.827587,-22.217392,-1.3193262,0.5029349,-14.855569,-5.449293,0.081208006,-4.656184,-5.093696,16.156616,-21.29857,-4.1456475,0.38332504,-14.016571,-1.3470792,-3.2775922,-10.740026,-23.311758,17.70701,-5.848259,9.884033,12.829759,-12.419864,-5.06824,4.953114,-14.269823,-0.23177433,-5.6187315,-6.8590918
33.803204,-61.197407,-8.674046,30.82575,1.544947,-12.411559,-8.337678,7.936483,-18.23975,10.089692,-6.948718,7.4853206,4.0148935,1.9261458,-18.245089,-2.9178987,0.81806445,-22.21555,-1.8336513,2.9810257,-2.4320812,-0.4693246,9.742204,-22.877693,-1.3246391,0.5041684,-17.595652,-5.4110847,0.077446476,-4.2858267,-5.079624,16.185236,-23.195238,-4.1894712,0.3987276,-16.199495,-1.3984804,-3.27239,-11.397954,-23.311758,17.70701,-5.848259,9.686992,13.9953785,-17.128159,-5.0910163,4.958776,-14.79973,-0.30943072,-5.6056824,-8.625988
35.14951,-61.23877,-11.991502,31.068483,4.208176,-11.047214,-8.52403,7.9958286,-15.375508,9.950254,-6.954026,5.7812905,4.1302733,3.6980813,-18.965353,-2.9148016,0.8166802,-23.852497,-1.828094,2.981186,-2.72546,-0.43515778,10.4653845,-23.198118,-1.3291676,0.5054278,-20.027525,-5.454426,0.08174081,-4.705949,-5.0531955,16.773369,-21.520803,-4.259603,0.41875428,-19.23783,-1.3109003,-3.280435,-10.2809725,-23.311758,17.70701,-5.848259,9.868559,12.612394,-12.899469,-5.190066,4.9860177,-17.110495,-0.34554547,-5.5988636,-9.468157
35.71234,-61.32722,-13.492533,30.924906,2.53692,-11.904605,-8.383814,7.9521756,-17.525616,10.085472,-6.948644,7.4336643,4.1587086,3.4347231,-20.354837,-2.931025,0.8224051,-15.211303,-1.8330636,2.981105,-2.469658,-0.4658649,9.695884,-24.171406,-1.3143032,0.5019601,-12.438119,-5.490009,0.08560689,-5.050812,-5.1531177,15.409353,-19.406775,-4.1162744,0.37440294,-12.588393,-1.6365931,-3.230307,-14.529386,-23.311758,17.70701,-5.848259,10.227406,8.515501,-5.0267186,-5.066173,4.95261,-14.221756,0.040796958,-5.6406956,-1.0037062
35.33927,-61.263737,-12.489764,30.99056,3.2620015,-11.533132,-8.358728,7.9437237,-17.913532,10.100742,-6.948983,7.6206775,4.148749,3.4516127,-19.995367,-2.9313526,0.8224788,-15.032572,-1.8330319,2.9811096,-2.4717035,-0.480626,9.375335,-24.11764,-1.3124475,0.5016517,-11.583118,-5.505938,0.087430775,-5.205029,-5.183359,14.919567,-19.523285,-4.0964336,0.36905426,-11.644627,-1.6013163,-3.2384164,-14.057147,-23.311758,17.70701,-5.848259,10.222773,7.8741407,-5.375289,-5.0912495,4.9588356,-14.805165,0.05330517,-5.6428504,-0.7056348
34.67565,-61.197556,-10.781095,31.029936,3.7274156,-11.294277,-8.00106,7.80332,-23.53935,9.6425705,-6.9934144,2.0394409,4.216156,2.1744273,-24.615843,-2.910799,0.814713,-25.976954,-1.7897289,2.9828446,-4.628133,-0.5282041,7.8509383,-28.822996,-1.3277686,0.5050135,-19.271566,-5.6847563,0.11124037,-6.921577,-5.202585,13.9371805,-26.190596,-4.2339067,0.41257447,-17.978764,-1.5559921,-3.2478771,-13.454525,-23.311758,17.70701,-5.848259,9.896966,8.70265,-13.551182,-5.333924,5.0338073,-20.49122,-0.4671573,-5.5755806,-12.160166
34.98814,-61.221386,-11.573914,30.736315,0.73826444,-12.822738,-7.974686,7.7915864,-23.960499,9.403931,-6.978781,-0.84038,4.2276864,1.3351433,-26.647339,-2.9053898,0.8117566,-28.87813,-1.7512972,2.9727328,-6.243257,-0.5281435,7.6521564,-30.66259,-1.331486,0.5061661,-21.280743,-5.768824,0.12381701,-7.7300086,-5.187644,13.999786,-27.874775,-4.266061,0.42044085,-19.554382,-1.654091,-3.2260427,-14.764639,-23.311758,17.70701,-5.848259,9.812976,9.361071,-15.500672,-5.439662,5.075814,-23.012869,-0.55822647,-5.554687,-14.132851
35.27854,-61.255207,-12.329451,30.999872,3.3698955,-11.477786,-8.389509,7.9540687,-17.437693,10.203831,-6.930967,8.853518,4.1519437,3.4674313,-20.073498,-2.930059,0.82217693,-15.7360115,-1.8225534,2.9814847,-3.0012372,-0.46623433,9.61306,-24.958057,-1.31725,0.50250995,-13.835563,-5.5488715,0.09261456,-5.6198583,-5.175394,15.003227,-19.942781,-4.155506,0.38657755,-14.502969,-1.63517,-3.230647,-14.510278,-23.311758,17.70701,-5.848259,10.14969,8.506606,-7.0504394,-5.0664206,4.9526706,-14.227524,-0.032290615,-5.6301494,-2.6435387
34.427986,-61.187737,-10.167268,31.070257,4.2307706,-11.035601,-8.205789,7.8881183,-20.298233,10.013397,-6.9497867,6.552431,4.185222,2.6217806,-22.7033,-2.9154592,0.8169849,-23.50473,-1.7857993,2.9809358,-4.76748,-0.52261555,8.094192,-27.688736,-1.3240321,0.5040168,-17.27492,-5.6974716,0.11313166,-7.0424867,-5.218278,13.857519,-24.549582,-4.22739,0.4104902,-17.720562,-1.5591382,-3.2472553,-13.4962015,-23.311758,17.70701,-5.848259,9.9045315,8.244909,-13.517312,-5.331569,5.0329413,-20.43552,-0.4371093,-5.582505,-11.548264
35.129898,-61.23647,-11.940442,30.755226,0.902696,-12.738999,-8.259569,7.908458,-19.455898,9.811748,-6.970881,4.0881934,3.9731288,0.62005454,-19.136356,-2.9191236,0.81857705,-21.567741,-1.759207,2.9730067,-5.8565993,-0.5780288,7.4565644,-21.835396,-1.3229516,0.5037524,-16.707275,-5.9250474,0.13887878,-9.612865,-5.1919527,14.654102,-20.807985,-4.2270403,0.41037983,-17.706762,-1.5830213,-3.242365,-13.813339,-23.311764,17.707014,-5.84826,9.973085,10.450401,-10.950751,-5.3918552,5.0560455,-21.867346,-0.60008436,-5.5436664,-15.08896
35.101173,-61.2332,-11.865809,30.735622,0.7323717,-12.825734,-8.318851,7.929895,-18.532053,9.845691,-6.966068,4.503394,3.9414268,0.7243808,-17.927488,-2.921843,0.8196385,-20.129438,-1.776582,2.9771254,-5.1136475,-0.58655953,7.3831463,-20.690535,-1.3207972,0.5032553,-15.596683,-5.8510594,0.12969492,-8.775675,-5.1932826,14.740048,-19.747732,-4.1947756,0.4004845,-16.43316,-1.5075848,-3.2567916,-12.816159,-23.311758,17.70701,-5.848259,10.047027,10.337833,-9.068368,-5.321942,5.0294313,-20.207928,-0.56914896,-5.55209,-14.38007
33.747623,-61.200592,-8.544947,30.99341,3.294868,-11.516273,-8.338099,7.936629,-18.23325,10.28149,-6.9138064,9.774983,4.078487,2.3861802,-19.526945,-2.9271984,0.82141185,-17.278578,-1.8117642,2.9836004,-3.5798519,-0.53592265,8.209683,-23.575659,-1.3138199,0.5018762,-12.213549,-5.619622,0.10192846,-6.2998886,-5.226883,14.176955,-20.062689,-4.129811,0.37836832,-13.242378,-1.4649945,-3.26362,-12.259097,-23.311758,17.70701,-5.848259,10.12146,8.747469,-7.698732,-5.180922,4.9833174,-16.896734,-0.36545855,-5.595263,-9.938393
33.83901,-61.195545,-8.757545,31.01964,3.6033216,-11.357999,-8.347022,7.9397135,-18.094881,10.37488,-6.892951,10.88099,4.1382575,3.8959963,-18.887884,-2.9331827,0.8228655,-14.034064,-1.8439703,2.9813108,-1.8256919,-0.47123742,9.549464,-24.464748,-1.3075361,0.5010184,-9.374491,-5.470967,0.08350143,-4.866307,-5.207867,14.520415,-19.638502,-4.0736017,0.3636009,-10.581976,-1.6373876,-3.2301173,-14.540048,-23.311758,17.70701,-5.848259,10.190729,7.899441,-6.199342,-5.148143,4.9739523,-16.13124,0.0098416135,-5.631148,-1.6937608
