41.11043197052268,-64.3862415682452,-31.354361039219544,29.87220471388565,-5.087235177413347,-15.76824266948517,-6.869295912651107,7.05316527035299,-43.37333341816698,6.042013319346637,-5.531246109415865,-45.4933195769397,4.961857582527128,1.996866299638969,-55.19763202427047,-2.8504182811564625,0.6757909488019863,-107.30698801463204,-0.8822720204207952,2.4506210016081695,-55.96318694704024,-0.40962373471667046,9.010273102011405,-42.696691086817665,-1.2884072126166841,0.4993335159424938,-0.13748131615832068,-5.1017610574149845,0.06487017001108167,-1.040456303635954,-4.76938382988691,16.589910590053833,-66.97186604277711,-5.049402075700409,2.0233722770985905,-108.29602479294006,-4.109318539332624,-1.49734638430457,-54.9671620467371,-23.309600830078125,17.705230712890625,-5.847499847412109,7.997025184552105,2.6059764211744545,-71.53892135034349,-6.95413324465004,8.002585476173802,-102.01763662723283,-1.724306060948748,-4.911682756615216,-43.62239072213956
40.95819432038527,-64.25620753614018,-30.791782689439252,29.842187192826266,-5.27623261067152,-15.862780862564009,-6.803927308032722,6.988097794378201,-44.71078559221216,6.067315662161198,-5.562259265331403,-45.020347179938305,4.963978795524892,1.9957452566578495,-55.26046263561909,-2.850253289862674,0.6762976974903109,-107.04524753995231,-0.8851406262889785,2.455629733236397,-55.69114515737806,-0.3712030011110419,9.761730735268408,-43.701585108115275,-1.2887572102130544,0.4993335966007992,-0.30353417731584786,-5.073905364576167,0.06407157186793669,-0.7542150253254505,-4.782833780951379,16.398502967013915,-66.93774519885665,-5.056646921366381,2.0001526808850705,-107.20732442443213,-4.081569101560882,-1.5368291476756633,-54.333110467305076,-23.309600830078125,17.705230712890625,-5.847499847412109,8.001282404091675,2.600420879272927,-71.0608372007064,-6.954118925601674,8.00291580811058,-102.02422747062018,-1.633370971602929,-4.995098052900724,-40.923174650992976
39.91094726593863,-63.466659695525024,-27.09386730926415,30.040452455975146,-4.044392400745117,-15.247425826342404,-6.930567412491888,7.1101302578173575,-42.159947706913314,5.921462388151495,-5.409734561996184,-47.51793205559527,4.903192721306111,1.1442607824225912,-54.54915765149995,-2.8488990253067796,0.6810909891394225,-104.57826203461624,-0.849445163099471,2.4000306404946086,-58.81624932925395,-0.44096267090325936,8.307524030088844,-42.8396247527978,-1.2878142616901542,0.4993313731060596,0.1544860997759585,-4.959094789294113,0.06385563337505624,0.4238878205088678,-4.754391565041564,16.78369991337231,-67.30194241244541,-5.050063656377114,2.02153791214782,-108.21025493804618,-4.102181425343826,-1.5081560291183471,-54.79681939702785,-23.309600830078125,17.705230712890625,-5.847499847412109,7.962862950035235,2.754090410703871,-73.7511619485866,-6.959269703665588,7.977271541189071,-101.44485239514538,-1.7072590466677842,-4.928460244104398,-43.09900804513737
40.03162398523976,-63.55342940744208,-27.51270332632769,29.911744183829587,-4.85504111370942,-15.65289418859312,-6.811090224150656,6.995008887035328,-44.566324324624944,5.711894156569086,-5.162001235008768,-51.35751388720015,4.884617236608112,0.1549495489899002,-56.52096303898825,-2.8508409161160086,0.6744260899158676,-108.01199819581272,-0.8290699526297086,2.364173486401298,-60.766757798310756,-0.36058081878286274,10.170815408939472,-41.75731830344661,-1.2877007469113586,0.49933090844165867,0.2210272529841973,-5.033441377793989,0.06399843069597844,-0.3390444779120571,-4.786694983018747,16.34306160360281,-66.79596739150386,-5.048712988309935,2.0255526715599435,-108.39855152609759,-4.18958299816339,-1.3787421683054275,-56.84824637585522,-23.309600830078125,17.705230712890625,-5.847499847412109,8.055953794959061,2.1692411876631787,-67.76531599860887,-6.941162051002505,8.06077549137814,-103.33587807488455,-1.8686884724165496,-4.76130333774247,-48.184294694071006
39.76715283602904,-63.381902113177354,-26.623871778798275,29.8493769470439,-5.223973431311693,-15.83627686329064,-6.788586962671994,6.972433222400348,-45.028392945093344,5.625835707998382,-5.051200961484737,-53.017532666826014,4.844741603128492,-0.08943044363899766,-55.11115451598071,-2.850666375524269,0.6750878943396892,-107.66951675071621,-0.8178296026418369,2.3445073662456286,-61.838065247819465,-0.4029796021574718,9.183164774697188,-42.39361236632933,-1.287766965430487,0.4993317346957629,0.18432635917262843,-4.9898674426528045,0.06398419940705327,0.10807511868663369,-4.835204369441655,15.647417244214562,-66.66677231894765,-5.0481383030488,2.0270191469739354,-108.46839487084985,-4.214408319790239,-1.3403025269930124,-57.4497460995002,-23.309600830078125,17.705230712890625,-5.847499847412109,8.032756972403252,1.9722184491449233,-68.96889745235062,-6.936053713818038,8.081215088558704,-103.80083653111464,-1.9115000285876966,-4.714068820834018,-49.5786444383386
39.91136614269158,-63.47712913875487,-27.11119236165273,29.849645039211715,-5.222498411475031,-15.835538766805533,-6.8139550567501725,6.99732000312901,-44.51306638290792,5.637829816859329,-5.066913617961179,-52.78355740472131,4.864115198983967,-0.07147190838646464,-56.10207716320123,-2.850645642967847,0.675116362482745,-107.65464276221913,-0.8266707429953308,2.36015793909433,-60.987953073802565,-0.38208050186955467,9.643707596938937,-42.362384231473726,-1.2877673828593112,0.49933145012292995,0.18479946081451146,-5.01602418653962,0.06400335271064642,-0.16030242601772643,-4.805905094311075,16.07201910745636,-66.6741048913407,-5.048270721684128,2.026965262271982,-108.46636291309551,-4.199885807270375,-1.3626982445233966,-57.099052991292275,-23.309600830078125,17.705230712890625,-5.847499847412109,8.043675567946732,1.8952949915600523,-68.35183251001676,-6.936307356078966,8.080717514761405,-103.79099675653549,-1.8795036546855557,-4.749466370992193,-48.5350184148715
39.81067473230172,-63.403500734239586,-26.759736788594786,29.837787036041288,-5.295730930141877,-15.872119117157954,-6.7573360891304075,6.93842750362491,-45.69773476923747,5.780370753961772,-5.244974614985059,-50.08535007251603,4.906563804531376,0.8146009020448283,-55.67467909778799,-2.848995218223465,0.6813260711381663,-104.48107854026121,-0.832110462058392,2.3703171225078403,-60.44393385303605,-0.3814238686833114,9.485253075497866,-44.30061289104948,-1.2877756409483612,0.49933104239316306,0.17963323008486826,-5.045811886834548,0.06415344266215531,-0.46607469768420023,-4.786701192798592,16.292114420143438,-67.77305406967312,-5.054742609161787,2.006545452122804,-107.50925408128292,-4.185861716966341,-1.3844240842861257,-56.75953936556241,-23.309600830078125,17.705230712890625,-5.847499847412109,8.000833994288595,2.5694164706648728,-71.18905297319623,-6.947594310834537,8.032419580170387,-102.6947887551755,-1.7408102317663563,-4.888875004160219,-44.23107277045247
39.75430499429526,-63.36945244983663,-26.574144640315655,29.876672092166622,-5.067088167427686,-15.758536777794612,-6.779541821512268,6.963723558852055,-45.21081542661152,5.672366827050017,-5.111300797439108,-52.1183558146617,4.8682601006806525,0.21286680962737967,-55.45944902588743,-2.850499426403242,0.6756809500788118,-107.37130999600022,-0.8241241980368263,2.355742837291555,-61.22941118237122,-0.38257480467926863,9.594958959733418,-42.78954632778689,-1.2877584002174263,0.4993316116450782,0.18983823962725097,-4.999090225758458,0.0638416906400003,0.013559380470773874,-4.813396265967398,15.93214201123935,-67.19722397563923,-5.049111466562548,2.0244220986306978,-108.34710211793131,-4.199919317531774,-1.3629973751550206,-57.096233742049684,-23.309600830078125,17.705230712890625,-5.847499847412109,8.032253972102525,2.184305584386348,-69.11745971034523,-6.939799661158238,8.066991371909365,-103.47930265185319,-1.8716930991143825,-4.755699584726751,-48.3183423482284
39.862462855737036,-63.43453771056727,-26.929813602955733,29.98976926009366,-4.375308627266046,-15.413502606253667,-6.952539542757298,7.130207756631604,-41.72820753739409,5.871735082025598,-5.354767267836364,-48.39498355239685,4.8950806534596305,1.0319007120577617,-54.42357637527449,-2.848684365774745,0.6819211156496604,-104.15365166995461,-0.8411950315905179,2.386554273949962,-59.56342826791057,-0.4378156418491444,8.325580244364165,-43.39420358910326,-1.2877394295480797,0.49933136615676216,0.19068370983107386,-4.940615329145226,0.06384223463879106,0.6136319041673947,-4.743361740996728,16.930937368667486,-67.53518694436698,-5.049473778532182,2.0232651368964363,-108.29093902606346,-4.103016852688232,-1.5070853558101507,-54.8147730929101,-23.309600830078125,17.705230712890625,-5.847499847412109,7.955416511351371,2.8121342798760747,-74.27606687596317,-6.959332758877278,7.977760677682849,-101.45531647374834,-1.6776796399485374,-4.956682215775176,-42.20497026510098
39.86142063682967,-63.43389678022553,-26.926345038884847,29.991147435161043,-4.365853231380701,-15.408725024290082,-6.976654445524256,7.151361433008288,-41.26281934189538,5.852532635690068,-5.332616200043039,-48.74179607350901,4.9018069638021275,1.152914042786353,-54.422250682606844,-2.84858088917293,0.6824125037903335,-103.9043485207253,-0.8368563661900067,2.3789543940972786,-59.977073704058206,-0.43799409724616406,8.333838200536848,-43.25889826760117,-1.2878052016094188,0.49933103353259956,0.15831046297060708,-4.955453140383034,0.06376619834024196,0.46136612166670155,-4.740529238747662,16.989766049613,-67.20139941537975,-5.0487472710586685,2.0255245007084524,-108.39727330224832,-4.103917961699217,-1.50574740192492,-54.83576462794899,-23.309600830078125,17.705230712890625,-5.847499847412109,7.956613772168074,2.8745472666222485,-74.21492170172567,-6.957253245701905,7.987442367622672,-101.67270281450499,-1.6778165114891361,-4.956512905270661,-42.209562541181036
39.81195621660435,-63.40301548662909,-26.761902018930805,29.93728567880292,-4.690491098128496,-15.570398473104337,-6.988736717364416,7.160511465316098,-41.04377466732463,5.830952150443971,-5.30741101523269,-49.13443306952064,4.909679945496411,1.2317823645800954,-54.59920338687802,-2.848271629620598,0.683768422669231,-103.21879277529642,-0.8305465379395128,2.3678408319565674,-60.581998782127314,-0.4386542885155154,8.292674008819024,-43.55603506478078,-1.287822881978517,0.49933089200784775,0.148332863723925,-4.991372383804765,0.06382762878830861,0.09270431908023688,-4.7446205473574325,16.948962967664432,-66.87737374438991,-5.049334260480938,2.0239845077960767,-108.32699390835401,-4.11057258398929,-1.4960828218098765,-54.98988564801421,-23.309600830078125,17.705230712890625,-5.847499847412109,7.96003611116259,2.7995567997787165,-73.93867127421929,-6.954464987679226,8.001356682542493,-101.98843436659698,-1.6737509436615015,-4.96017534027355,-42.089811648719134
39.94383329166655,-63.48859986970483,-27.205402638713515,29.933761612188853,-4.7187151004640935,-15.584821237089006,-6.999248073890241,7.16681717850242,-40.86797334544167,5.878607017689705,-5.3559721872702974,-48.330118159469386,4.923410706788389,1.50035393475275,-54.54669104342503,-2.8481707525206224,0.6841628438874539,-103.01035622421406,-0.8305524041382917,2.3673679586023875,-60.60134298561489,-0.4201919907227766,8.662831523875827,-43.95359170154051,-1.2877985258442304,0.49933129671190696,0.1666087397289278,-5.02597364366253,0.06451261655619042,-0.26250894516580664,-4.749745467792395,16.877952111786666,-66.87034853168191,-5.048246445806693,2.0268933409973218,-108.4574203861431,-4.079064068030187,-1.5407837945869989,-54.27229577868518,-23.309600830078125,17.705230712890625,-5.847499847412109,7.963925542230308,2.785507807797432,-73.6235552485985,-6.946571845581099,8.038578996200531,-102.83667913196932,-1.648771059708301,-4.981835307087783,-41.36777470183305
38.69947100893238,-62.820115093162165,-23.226348591521685,29.984882944778633,-4.391311085676832,-15.42077342040632,-6.812288469317322,6.9893106718797995,-44.60888067114855,6.009277007194814,-5.495422537145055,-46.06605520993013,4.93718702687425,2.1974645545030866,-53.351971660650385,-2.847703781729215,0.6869738182443033,-101.6024454923926,-0.8034684012833051,2.3054105527829174,-63.79797804567615,-0.4010226376679559,9.026854285967772,-44.608769295801665,-1.2880286622828856,0.4993308769249329,0.05005198392045074,-4.863595292100824,0.06535887859022434,1.404060294567253,-4.742707603356804,16.951348620071574,-67.42910951564548,-5.052655106230542,2.011567427117459,-107.74177942742173,-4.10079829923856,-1.5086750237706734,-54.78102050309828,-23.309600830078125,17.705230712890625,-5.847499847412109,7.958207967431717,2.9350961925687438,-74.27508923252849,-6.949521807959647,8.020513395641547,-102.4283442140043,-1.5726194336943782,-5.04710127178884,-39.17440452024341
38.85521162099707,-62.935799339706705,-23.774013019953053,30.012472142521652,-4.205370613612855,-15.327208468009953,-6.835861851604484,7.009424286114933,-44.159776181207164,5.963094327049346,-5.444751012234348,-46.87772028048475,4.923720907925953,1.8585788857002714,-53.641588937662654,-2.847878062448609,0.6864343150599049,-101.88157289971313,-0.7999193742210886,2.300178199645989,-64.09455912348426,-0.40671243334947577,8.92447927103764,-44.35712701562863,-1.288122839982854,0.49933085562536383,0.004272379636455881,-4.89875364444991,0.06564071927284174,1.0431902372243584,-4.739553428141492,17.014535268627423,-67.0965019635216,-5.052290903900714,2.012349483236065,-107.77707982126046,-4.132785865258157,-1.458979907306004,-55.55806414642926,-23.309600830078125,17.705230712890625,-5.847499847412109,7.9739335793117,2.792143372209003,-73.29933752276062,-6.952690641124491,8.005819775742747,-102.09696659399991,-1.6215023121065273,-4.997249491921315,-40.70553610125248
38.158905373026435,-62.52159745051647,-21.48579188670706,29.96124870542165,-4.540500305928935,-15.495417896924787,-6.78076784336451,6.956114541454426,-45.27267319588234,5.933964013258519,-5.4147815414105525,-47.37212632127871,4.936158237538677,2.2201022057694515,-53.23692690768102,-2.847209458309193,0.6892188676933021,-100.4660397854813,-0.783470707233824,2.265598370863518,-65.9075539925808,-0.40419154752365244,8.92917225337278,-44.92478579757865,-1.2880445506120668,0.4993312602199171,0.043100062396080926,-4.851312643991034,0.06573419577071553,1.5301214178873983,-4.741249744734022,16.982436158656405,-67.23825610285628,-5.052948080277472,2.0108304883021795,-107.70788952137119,-4.123992301761175,-1.4754804528197378,-55.312842795056554,-23.309600830078125,17.705230712890625,-5.847499847412109,7.954507369327395,3.0535358734267137,-74.62625930752219,-6.953141101563671,8.004248256675915,-102.05831974740858,-1.5796106479579757,-5.041362343511752,-39.37212046995305
38.59208384817182,-62.79056183363099,-22.92691159351962,29.991476779170974,-4.337714342047493,-15.39341594016636,-6.825131776551176,6.998378720204523,-44.38309984879731,5.927454649887479,-5.406929814019056,-47.492811600290786,4.9235818689865445,1.8946950411402483,-53.53406533266377,-2.8476234884692593,0.6875816631933476,-101.30053407904137,-0.7894148905801892,2.278951663281065,-65.21619482435779,-0.40750330313409194,8.892088060193924,-44.52544793122097,-1.2881132343079633,0.49933120540340914,0.010011240782611352,-4.891541924699709,0.06587142062051546,1.1172152071894614,-4.737798343870114,17.04558806205066,-66.98505133358199,-5.052487288190999,2.0119112466700266,-107.75712541700143,-4.143079387653241,-1.4443341017853473,-55.793063341045624,-23.309600830078125,17.705230712890625,-5.847499847412109,7.97292377499267,2.8804315911032075,-73.42046557953972,-6.954395608651254,7.998205682704776,-101.92318632629369,-1.6246454828361752,-4.994661054478062,-40.79440988151284
35.88069339393286,-61.788306044560365,-14.812420030967491,30.393027752462878,-0.4700228371195589,-13.404395018823598,-8.130716882601472,7.8336046029458215,-21.60648600885195,8.281359358061938,-6.796137667732472,-14.470782690867594,3.9960187348516447,2.0330025522447466,-17.686091972596717,-2.8650300183695343,0.772945095808392,-56.84563310086717,-1.1069086167267148,2.681048276034615,-40.59765140099897,-0.5642070952281683,6.765937677947721,-31.288128529210034,-1.3931716634914129,0.5646004741073043,-62.803540907842454,-9.010116692899361,1.8249188061727555,-46.489879806385964,-5.189792003388897,12.980835838273943,-35.47916233680708,-5.012512802949384,1.1530914291719334,-68.30914026859129,-3.784655381017081,-1.8706093833577053,-48.45818744842654,-23.309608943233748,17.705236875385985,-5.847501882696819,8.930435879443817,5.500686725041916,-37.120331092625904,-6.820551253536697,6.627955044150492,-70.78251862473638,-1.7087248360741256,-4.909868212298555,-43.4006472821936
32.70157829497565,-60.99811593033775,-5.725764349664256,30.338087808694162,-1.7950026385152387,-14.106389990309543,-8.791592708245897,8.040538562287958,-11.442223090594146,9.660207589299487,-6.944132487655738,2.240160013282645,3.4895477785318825,3.7060391338404415,1.7779979672838802,-2.926743026288001,0.8205226163215,-17.182216006558672,-1.6010577481911146,2.9424067078364837,-13.667945500397042,-0.6018158050359311,8.90077343460069,-5.051747098030914,-1.309715222968288,0.5018509134866485,-10.473382325633354,-5.990741037778875,0.1545809048627275,-10.230984109056354,-5.214176026973948,16.872036495553708,-1.5212502825861551,-4.108866442446365,0.37348144610649536,-12.255507560620714,-1.4048028154219088,-3.2659775316807553,-11.49674298393725,-23.309597913174418,17.705228497324278,-5.847499115668014,11.036446243196803,12.886087192078245,13.351548199365757,-5.4375006345876615,5.098822692105913,-23.09404562271133,-0.3919155535454544,-5.57885857331004,-10.508205855298318
30.804458477555794,-60.75558971843664,-0.5395261208436467,30.617925709829827,0.1915916562954474,-13.103076194713093,-8.757809640130377,8.048487884417383,-11.917366966160708,10.061983949837511,-6.9243211539810785,7.0903358134920556,3.730077151261289,3.6547111868181132,-6.033213733897718,-2.930911933048738,0.8217155664143142,-15.03400248363316,-1.706039323784531,2.9644462147518515,-8.57364043523653,-0.5692447600277359,8.742077619241751,-12.413991118385404,-1.3053065378139008,0.5008899633473847,-8.306055489921672,-5.864860018445493,0.13562987705700563,-8.92324934575937,-5.167141607724052,16.53039963915138,-9.729674604868984,-4.11414228727034,0.373177208170912,-12.501937686309807,-1.3754499226447883,-3.271367559426691,-11.107502517790849,-23.309601098185258,17.70523091656739,-5.84749991466567,11.017981338609038,14.244564999553138,13.610196189241336,-5.500513132240561,5.1098929855378925,-24.467335376529373,-0.4314201000257455,-5.581878905126009,-11.33993306726412
30.917683926312044,-60.73690132370717,-0.8292336016446982,31.02036444709654,3.8082488569464035,-11.251293853256339,-8.614104063954713,8.01509161501003,-14.071297928576453,9.96343035310711,-6.957370806559291,5.876528843645124,3.717610998043187,2.469850416378475,-7.686322727329824,-2.9290707967773364,0.8215096313580986,-15.947670991092352,-1.6112434339220854,2.9524701842122907,-13.101265264488456,-0.6125555984942546,7.332500890860395,-16.298180734823458,-1.297087587772452,0.4998867044754536,-4.320253606219269,-5.444863657790561,0.08412948107542537,-4.570174047126376,-5.196941532338506,15.75564520707454,-12.299796094723972,-4.059972701057518,0.3616376194907426,-10.008016589830959,-1.176531982647936,-3.309650472502413,-8.449678879619437,-23.309600895160855,17.705230762333024,-5.847499863737832,10.778291007784564,13.226104353830038,7.629054988850856,-5.375676701479838,5.060391078974919,-21.46820178705459,-0.30323900867500553,-5.606965124024509,-8.48305008398351
33.748005511821276,-61.0873885370958,-8.538472410463118,30.47489546223186,-0.7542084811060976,-13.577273018655578,-8.466262253500215,7.97499945503472,-16.306986972774254,9.721180677144847,-6.976145860771671,2.96645533382322,3.8643998587771535,3.6952832935623716,-10.256662270484886,-2.9291266399194265,0.8214529437218084,-15.93027462126247,-1.7063907499512918,2.9668555877569083,-8.542755676917523,-0.5167759457380454,9.70606909160937,-14.047970447439644,-1.305423614464635,0.5009434567174722,-8.36145930542194,-5.704741295028474,0.11006311064583718,-7.25438507283414,-5.125074935570937,17.085176156710258,-10.101957473232904,-4.118156416806917,0.37374153988062797,-12.6793776129532,-1.2842578232806694,-3.286982783739383,-9.892420811707579,-23.309597286514876,17.705228021318483,-5.847498958464911,10.731278840812934,12.988627469969964,6.3805960023722745,-5.2598126719259675,5.028152423236698,-18.79743565937301,-0.10443768872619956,-5.628555199175671,-4.111267488365411
35.63852793380106,-61.6051060831614,-13.989699844406143,30.91244696529701,3.2543335715731585,-11.52450975463711,-8.4924397727447,7.965738368902443,-15.985031327201009,10.482046033472217,-6.864666853926998,12.193404672317023,4.0027669723561345,3.5173179096138725,-15.243424368526018,-2.9261546434225894,0.819565434511814,-17.672429888035953,-1.8391351719695905,2.9797580889239534,-2.213877163082729,-0.4453499041878707,9.82337105624825,-27.09458611159111,-1.3343561249136486,0.5112964438116977,-23.39960252272143,-5.918856554604867,0.15646689382546772,-9.5125352671087,-5.037660414336487,16.384687165530057,-26.434467877451,-4.277864418722833,0.4558868572145096,-20.904998666264955,-1.5951268796345022,-3.2091457624677213,-14.109529532257303,-23.30959730115756,17.70522803243596,-5.847498962138866,9.857543672055668,9.894595957768624,-13.96867514413078,-5.314915125982317,5.079426100224569,-20.46248049747449,-0.16604237812278938,-5.607964966905449,-5.508928322155031
34.29597339954806,-61.19187088376445,-10.078477003156186,30.793891991369765,1.9160874158555075,-12.21583159030892,-8.268199891634357,7.906505905994864,-19.36378720887901,10.217551000496055,-6.9220921944998866,8.948274825664608,3.9974288993279314,3.4507937618823092,-15.08324214426591,-2.929866997331722,0.8214334356316465,-15.585659596121644,-1.7690214987506014,2.976108560547245,-5.539144202818216,-0.5075257060544316,9.235920333014153,-19.912597957891993,-1.3094786015786357,0.5023492531721183,-10.453514796622525,-5.683634792514606,0.11326509206623978,-7.044810482686351,-5.140542270631498,16.02441391767434,-16.797945752322214,-4.112495516523947,0.38080749943606257,-12.546586485444726,-1.4254702789257137,-3.255972626682386,-11.791159598950063,-23.3095997313142,17.70522987832534,-5.847499571770727,10.278090131564202,9.719940802793511,-5.151851953585062,-5.22505568391877,5.0130159864796315,-17.976385441245895,-0.10550300811717886,-5.621935251804777,-4.1494390342499035
34.029432350126555,-61.16086032961132,-9.358104691804558,31.05846024275321,4.13774286971335,-11.082766240058517,-8.365387742166584,7.941196129350229,-17.859302325505034,10.410344434814927,-6.883856422072003,11.303075051504033,4.104139941534665,4.172718855780647,-17.36872459781385,-2.926716094841165,0.8203830672110464,-17.236456443144952,-1.8382532631009618,2.982004605433743,-2.2480518104156477,-0.47302838002111514,9.874621272288199,-20.90741738434513,-1.313926359754462,0.5031283326527328,-12.62189613727153,-5.52807013215531,0.09959269642010628,-5.438262877511496,-5.065027941765277,16.985062669249896,-17.766453530621487,-4.136717439847562,0.38762510686299273,-13.672891207410553,-1.4927395467991493,-3.24444120893776,-12.685596322034902,-23.309598532082372,17.70522896743655,-5.847499270927335,10.18773251421312,10.62176289400154,-6.383402730133495,-5.173008688121209,4.9920436708875044,-16.72843234431192,-0.18307302677306003,-5.619479771004448,-5.840511859983876
33.3683636536698,-60.95300505355036,-7.434247019723124,31.11101348080973,4.734251564535133,-10.774600253134748,-8.680051053908603,8.032813054126791,-13.075359335536428,10.80337638880712,-6.795894118138788,16.131353147258537,3.901114372477715,3.7736918741981227,-11.299953588992096,-2.9348392546529714,0.8230614459523988,-12.981307665608702,-1.913821854505683,2.9839542223008215,1.3309043095813156,-0.5235621896364947,9.4808250212812,-14.692818655441224,-1.303138663039406,0.5002822389300241,-7.228285620383178,-5.354409780709398,0.0774217736616352,-3.6385476476494403,-5.1107775224909275,17.0317756373622,-12.21281688061992,-4.030867204944682,0.3568155429815255,-8.685072455226665,-1.2930431813599739,-3.291120113932151,-9.995943053252867,-23.309588061688686,17.705221014430105,-5.847496644304465,10.431549790354886,11.42408666987438,-0.9818743109185659,-4.804630813054035,4.901368603092945,-8.270775368691158,0.08922718687500168,-5.63608434857607,0.12539332166517453
32.89698473899854,-60.869034551078116,-6.130806192567933,31.029877004275022,3.8052714653374893,-11.254619171113452,-8.555455592505846,8.002612092362103,-14.946197704510514,10.41989115213572,-6.891674000616971,11.396768785131737,3.9703397193817103,4.155404442545045,-12.86334831445171,-2.934357958367216,0.8229555175487994,-13.229572591060531,-1.8535343737153536,2.983987261741471,-1.522661610668014,-0.5174761199172407,9.461984750555562,-16.021125080894002,-1.304018839678695,0.5003972619002166,-7.657226990826288,-5.515418008223536,0.0874626091112722,-5.295255901643984,-5.098972593549298,17.181594621050625,-12.400560356216932,-4.008970397099059,0.35359835859742855,-7.6925218047822055,-1.3081803473629603,-3.2896084890424744,-10.19475492826804,-23.309600830078125,17.705230712890625,-5.847499847412109,10.48291873214757,10.893647841266699,-0.22234707385312333,-4.903539410807974,4.917447419719116,-10.494827717182012,-0.1809573484899248,-5.623012683569281,-5.787670918055901
32.50323929247535,-60.82562563487668,-5.064471298028767,31.10835788542648,4.670270541728391,-10.808146602467122,-8.628375246660871,8.021488656589568,-13.847356316307643,10.7162338688035,-6.820494821438129,15.046762648583037,4.004476174343871,3.118522893277878,-15.790451189441688,-2.930899887801976,0.822088325093777,-14.992835832266184,-1.7970849951100358,2.9812724881439254,-4.195435395813112,-0.48374973333314975,9.65502301956017,-20.775196644152775,-1.3033797483684206,0.5003120094528886,-7.350682348249255,-5.402446283789525,0.07808988296337138,-4.130986785660445,-5.113598785516067,16.56005559861678,-15.683875575916247,-4.0331616412843045,0.3571535937283186,-8.78901760538686,-1.3561027119900009,-3.2807157040919463,-10.833486631431661,-23.309600830078125,17.705230712890625,-5.847499847412109,10.484284014695358,10.075560074214334,-0.6220615584891519,-5.097113396051195,4.961158410987444,-14.899787282930408,-0.0884161167922655,-5.630790126883308,-3.7585529422586292
32.76013798818417,-60.85241435524788,-5.759013652973371,31.112933527632414,4.738876166388267,-10.772440086028382,-8.628330301396714,8.020858515330461,-13.850212256997661,10.469761678232953,-6.880537301032082,12.008666658438212,3.872796427427595,2.8224059924567357,-12.050696413090028,-2.9354556236448177,0.8231858215468743,-12.674394412823707,-1.865240646104978,2.984156110445379,-0.9685245670852247,-0.5135131213705462,9.371268017612753,-17.55471510790904,-1.3014721274643402,0.5000978908384377,-6.427280730221389,-5.3794251741799055,0.07759325252611667,-3.8948425305124355,-5.078453975810113,17.281525504357887,-13.97532312372507,-4.00382567115785,0.35292720632440155,-7.458896972903476,-1.2529706313274276,-3.2988695082114368,-9.460972518192099,-23.309600830078125,17.705230712890625,-5.847499847412109,10.504124872449246,10.787154504943752,0.15908940753090164,-4.862788661262816,4.910501007936924,-9.577291428687598,-0.12928254331309433,-5.627281176108587,-4.654752729462955
33.312413415900124,-60.93900260083168,-7.275919137722951,31.079584790979474,4.3324454314117204,-10.982837283799267,-8.679046420477178,8.033644418314811,-13.08714494818621,10.698587688845214,-6.824123589432629,14.831424449741007,4.011131810009359,3.1057976367324844,-16.033269275968575,-2.933363510190813,0.8226820383313719,-13.737020200862148,-1.856644765762141,2.982003153281445,-1.3763452930292872,-0.45902239433262204,10.186335399250165,-20.870378058178098,-1.3024374399163385,0.50019791293283,-6.888963938432464,-5.333535544936356,0.07431071577624523,-3.422320772638632,-5.102192762923622,16.673103313822264,-16.096702451750428,-4.025837149147213,0.35600113532771893,-8.456729383765147,-1.2689048633297813,-3.295510840691237,-9.674395889893791,-23.309600830078125,17.705230712890625,-5.847499847412109,10.414543728080906,9.662606417072306,-2.2443215372029477,-5.04803294133508,4.948717569867779,-13.776191134602751,-0.048242808034410146,-5.6324532118451005,-2.8800837347280366
34.23939087303252,-61.096910109571354,-9.833307004908857,31.14225679018089,5.069296833435248,-10.60178094707533,-8.713507550680106,8.041767522838107,-12.570447664914084,10.554418958864009,-6.860992766650559,13.04921829783699,3.9854297517205106,2.4421570971983266,-16.375500446631342,-2.9363543628653455,0.8234078062792424,-12.214280069344287,-1.9454476600420065,2.983039053715602,2.82679890012792,-0.46700164352597684,9.942187110477587,-21.48928168890611,-1.30086542759607,0.500016767550244,-6.133595373633177,-5.237370727897206,0.068653151834512,-2.4332999192851763,-5.170496234254707,15.604958641880419,-16.6960333225922,-4.024296681311448,0.35580644515291404,-8.38753602990009,-1.1472098603593557,-3.3154800626882173,-8.058176546219126,-23.30959959229303,17.705229772708694,-5.847499536898475,10.299359886644895,7.791327804553612,-5.471396038718277,-4.997640031612746,4.9368045221684955,-12.626811963402611,0.03758423375945539,-5.635885010535522,-1.0029296074226217
34.13321078158298,-61.07375267789464,-9.535656579405934,31.125089261654818,4.853910254156723,-10.713351053721683,-8.639312301905985,8.02263468743847,-13.688375713709112,10.424793279650748,-6.88855407488369,11.461812612723858,4.029015876416373,3.137302491099801,-16.581952176980955,-2.9362297924632457,0.8233809999239481,-12.27922928128967,-1.9278418744364731,2.9835188576712306,1.9939625697082435,-0.45502380117243646,10.110744399648322,-22.321152112963762,-1.3011391372319088,0.5000456006537408,-6.265224967076336,-5.284017195313669,0.07129967264560902,-2.9129630659403043,-5.18953719268373,15.240135547426362,-17.386627558428167,-4.024982778466782,0.35588622591111296,-8.417930027477018,-1.1701978148593921,-3.312039461148862,-8.36273776601718,-23.309600830078125,17.705230712890625,-5.847499847412109,10.316975251130428,7.30205120439896,-5.297386339673134,-4.990849301812565,4.935262272716115,-12.472226167727568,0.019961819371528473,-5.635603605204251,-1.3879910964735607
33.35628953013781,-60.951322742153344,-7.401078948051858,31.153909318802988,5.196856907136093,-10.535936508301202,-8.672012095155235,8.031430245119578,-13.194246665628304,10.522558864213917,-6.8683718170688834,12.657325721513654,3.9015014255207396,2.5706781763320703,-13.426712621351271,-2.9357050073199398,0.8232528895522544,-12.542935194111756,-1.8918646512413198,2.983538623718993,0.2913480763340089,-0.4790119049025159,9.862965246901716,-19.863839305087787,-1.3016201809344068,0.5001178393966941,-6.5007099617145965,-5.254147550387726,0.07007786287699865,-2.6059645381494834,-5.109238800262402,16.64757531579061,-15.465520288182248,-4.022484466892873,0.35582127771890515,-8.306960624589994,-1.2475826374378802,-3.299088386278919,-9.391129024412086,-23.30959993172684,17.705230030531993,-5.8474996220495905,10.409438810127586,9.606082313796133,-2.3617172175937484,-4.913451863999575,4.920467272878101,-10.7233977522458,-0.04593355202207446,-5.63157720416975,-2.8307470550352374
34.26000444694084,-61.098839161889785,-9.888606413965743,31.136527208834273,4.985208971525424,-10.645488885360892,-8.715730416721827,8.042295139665466,-12.53707525122093,10.49883115402543,-6.874912426965035,12.362844600592299,3.9930513285205493,2.3583481550583913,-16.77465407306055,-2.9362025302073156,0.8233763260533665,-12.291220294076266,-1.9442568362908013,2.983107425033947,2.7707390287629345,-0.45677651665099095,10.079730954281564,-22.25478147338449,-1.3005813144825829,0.49998391227682115,-5.9973007875837165,-5.236018869646255,0.06855986967532676,-2.4193287240895436,-5.186184797710689,15.3304310180097,-17.066290261399416,-4.020698302056637,0.3552683587172939,-8.223231748120316,-1.147279080705145,-3.315475228836083,-8.059043424824978,-23.309600830078125,17.705230712890625,-5.847499847412109,10.309197731553883,7.253778901344011,-5.47514337535989,-5.004747997701402,4.938207971657308,-12.787654658810794,0.03166207653532531,-5.635916780203599,-1.1322955913687203
34.72904385644243,-61.252076313514976,-11.256182667025872,31.072314529791008,4.2877696949101765,-11.005327911642942,-8.567358143150695,8.00184944582006,-14.779728570429892,10.427732618332682,-6.883717015738682,11.50897585923527,4.169168017266932,4.292942525876697,-19.259070522093097,-2.928764974950691,0.82052118996223,-16.29480468435686,-1.8444474096763017,2.9823794341828234,-1.9550556620213562,-0.43679706771439647,10.326148241783281,-24.02265531090847,-1.317248178401904,0.5040658501933372,-14.308233776600611,-5.517587769196089,0.09367798659176511,-5.326461621405951,-5.1382741422579965,15.897973108660022,-18.13001407098907,-4.112892758181291,0.37487939799637243,-12.478162899860347,-1.4005803762483597,-3.2675840311437696,-11.440311136549365,-23.309596377105464,17.705227330557285,-5.847498730328774,10.35635486921787,8.618555353695147,-3.936466429317929,-4.949396822529361,4.926655564817536,-11.531296333401327,-0.01321017699722304,-5.633421021183144,-2.1139344568033906
33.91883800044335,-61.039739674742805,-8.946522516627448,31.095516968747766,4.5341610448531595,-10.878300292948285,-8.47571429856993,7.979130667245654,-16.158030752199767,10.226083604324774,-6.92673533488486,9.03956062501,4.119755315674717,4.990328465342147,-16.31073177715735,-2.935544782407555,0.8232081402991114,-12.63360371597577,-1.8888722402419003,2.984399503081547,0.1498127957033631,-0.4397799679610265,10.363520090057262,-23.046377715806877,-1.3022193320065825,0.5001698237655775,-6.7901354002071885,-5.399553611126913,0.07788661324893961,-4.101136239042391,-5.1735999759490054,15.328058787213498,-18.572914868725437,-4.030107251791122,0.3566818019897172,-8.650338676344225,-1.2281632327360232,-3.302933909078631,-9.131593685016243,-23.309600879733274,17.705230750613687,-5.8474998598677805,10.29481411693195,7.329464320500721,-5.747366589172976,-4.9857139728989175,4.934668179312524,-12.358484036918805,-0.025364563596875535,-5.633901389566143,-2.3788877568676834
33.799468281213464,-61.01182995132368,-8.610577831707495,31.173509210420796,5.463580146018485,-10.39752450926471,-8.620789700733274,8.018401072742861,-13.965431830867635,10.650032006514282,-6.8376357798417375,14.227737404241699,3.9954135865497435,1.9749872248009201,-17.555997658027746,-2.9396731333568384,0.8240421721932588,-10.540868200490262,-1.9146677422963152,2.9837900614314887,1.3704298752413968,-0.4454423514262511,10.398441803086635,-21.621937719969345,-1.3014171578865035,0.5000753729236047,-6.398192244565788,-5.236388883120415,0.06856631389261791,-2.423095093109196,-5.109552318004764,16.40507609502546,-17.426245415807017,-4.001372518734982,0.35293230138577447,-7.349475925385301,-1.1606142439196696,-3.3135785351358313,-8.235672809697494,-23.309600830078125,17.705230712890625,-5.847499847412109,10.283562111242443,9.594346876093377,-4.992056841324952,-4.989760675967288,4.934911342682413,-12.447108002292989,0.0030711120414835084,-5.635105109744929,-1.7573415297527113
32.94686055411431,-60.87923241432795,-6.269900877012403,31.21637132983161,5.964421204257484,-10.13858472005063,-8.980642559860211,8.09053861405799,-8.604623054565502,11.05593040179858,-6.710979725958199,19.32402259789131,4.09178718491173,5.465808633673774,-14.604369970157217,-2.9393145939363796,0.8240083128999343,-10.713459016829601,-1.9371961965703517,2.9834347699394757,2.436440953571494,-0.41108985268808,11.345956292679888,-19.86160628859178,-1.300078958841198,0.49992048650903376,-5.743035270946699,-5.335302258228217,0.07360949192876212,-3.4395357320766964,-5.101651114107453,16.667354418399775,-16.271093072090604,-3.995758432849546,0.3516534497346737,-7.08683755388887,-1.1573330180186185,-3.314132490680799,-8.191850682045683,-23.309600830078125,17.705230712890625,-5.847499847412109,10.357889171962787,8.92652721994207,-3.8237634787181776,-4.849688890398411,4.908749321229033,-9.284658227136774,-0.03005974015066446,-5.6339224557519785,-2.481890278958079
33.61202445539048,-60.97532035396658,-8.089449016419863,31.206089193228628,5.839302022636991,-10.203317505760339,-8.469714406715694,7.977655528288553,-16.248140537522183,10.500381206105335,-6.872684436994712,12.387308154710556,4.071203380018463,3.5646230777919548,-17.21502555249579,-2.9435287165063553,0.8247080192712002,-8.59818030156426,-1.8959909963717405,2.984350435868088,0.4859982621203057,-0.422064051944936,11.017855026259685,-20.651632495736592,-1.3010574071003804,0.5000367144897543,-6.2266829885512545,-5.337088883642677,0.07404445724614568,-3.4585535089007697,-5.109399778213299,16.39256434035277,-17.59155539995055,-3.9871965528351945,0.3509241261720552,-6.706449390980941,-1.0906530603149132,-3.3228518289675706,-7.310892434653749,-23.309600830078125,17.705230712890625,-5.847499847412109,10.21876374501334,9.465332884325367,-6.475383627168121,-4.9139270446382906,4.919837483910577,-10.731094480886526,0.035291396233684325,-5.635831661517892,-1.0531243489454705
33.975741238935115,-61.04458148298322,-9.099263131548815,31.162449114085312,5.324768156407304,-10.469433089548732,-8.663587934568605,8.029240852149112,-13.321299090255192,10.599302884039465,-6.850319196063689,13.601565078915007,3.9960917387510064,2.1685761954505005,-17.22379474657415,-2.9383302548278483,0.8237859360793738,-11.216566611044307,-1.9263270029989439,2.9835181919809246,1.922438587311337,-0.44934268974918046,10.295613077271053,-21.779066863817608,-1.3011983417265216,0.5000522540524919,-6.294006931515801,-5.235175822270337,0.0685173391417655,-2.4106038168812267,-5.13879583367422,16.00498249103712,-17.21140548902842,-4.010553299671864,0.35405740707448774,-7.764596086014367,-1.1582911835552578,-3.313902388826885,-8.204883916869168,-23.309600830078125,17.705230712890625,-5.847499847412109,10.298473053177766,8.774154361999134,-5.04939002522203,-4.994472011460348,4.935962669497314,-12.554050456781795,0.016089176930018583,-5.635502418940955,-1.4727383286699776
32.829906122509854,-60.861713751671765,-5.949218843995284,31.05834987092765,4.098388050691766,-11.10365676924533,-8.656719377746336,8.028420652756697,-13.421771133294328,10.791675695036096,-6.7993010729220185,15.985309445706628,4.030572453604929,3.4533128520034735,-16.0518161719935,-2.9308880546848552,0.8220822116670652,-15.004414762917367,-1.7957098406929966,2.9811672245076144,-4.261294813530358,-0.4591785490141961,10.212312385687435,-20.610095513758132,-1.303742672892371,0.5003581979202026,-7.519317274039118,-5.415709397014463,0.07907146027233995,-4.267524395693194,-5.0547066812923855,17.363084940257757,-16.079411810884558,-4.025039709642838,0.355893071884685,-8.420221396153472,-1.3597014779889918,-3.2799939492557,-10.881559247777687,-23.309600830078125,17.705230712890625,-5.847499847412109,10.476662727422019,10.706864992466311,-0.4568357132761335,-5.0724738141279015,4.954624285105591,-14.334021641531862,-0.11142204246099041,-5.629081416038597,-4.262626326531626
32.97906412048176,-60.880325339591494,-6.354907537945869,31.07374166152953,4.275313480425277,-11.01220257231529,-8.674044185714658,8.030298167937236,-13.16836341618133,10.851025905298089,-6.781621101767305,16.72706677205487,4.054271532319368,3.8222826863846096,-16.2053168061792,-2.932928334892979,0.8225400748344353,-13.962171150790805,-1.810508952532421,2.981831426763674,-3.5600563882854983,-0.44631344200257717,10.505825621413711,-20.49896368295866,-1.3037891395850643,0.5003644897707782,-7.546645873235765,-5.398319627522411,0.07806508736340438,-4.088684448480729,-5.056666841915148,17.324679025580224,-16.138866516130594,-4.021168086952082,0.3554940657804682,-8.246101873518876,-1.331734994584434,-3.2846625513433936,-10.510132860448516,-23.309600830078125,17.705230712890625,-5.847499847412109,10.469408432084517,10.688051148763206,-0.5871341600228461,-5.052873477314852,4.949805587296197,-13.886046030611052,-0.1295420264234956,-5.627528104185258,-4.6599190446329
32.984306300790905,-60.88015696688412,-6.368444233694731,31.043028980212313,3.9387981079787138,-11.185883120617618,-8.780980286876117,8.053550363798355,-11.570217783525191,10.848843103065931,-6.7827822789609185,16.698051908869168,4.088346058808833,4.645345052433768,-15.922152564907872,-2.933528866116734,0.8226678426884826,-13.664363334815542,-1.8151147562640424,2.982006509791523,-3.342498117866332,-0.4392761720372671,10.682405981471726,-20.296522227824095,-1.3042457706368211,0.5004262171681982,-7.765557907929877,-5.39712417539071,0.07782294823161928,-4.076324592690456,-5.0822623605897945,16.995823759389026,-15.806353595366229,-4.038035532061944,0.3581623380381237,-9.012787912581425,-1.323837786194235,-3.2864010473085123,-10.404142495974542,-23.309600830078125,17.705230712890625,-5.847499847412109,10.49639721262275,10.035996759782083,-0.3530741170269566,-5.0407001181912605,4.946939008026243,-13.608455537962607,-0.11988170095433923,-5.628503538699915,-4.447785173004602
34.18792433371077,-61.08501158162409,-9.688371498549651,31.130313418121563,4.9140126505794655,-10.682282807958646,-8.713026425114283,8.041651870069373,-12.577622609047229,10.516216731268825,-6.870980489982176,12.576230750046856,3.993917379715062,2.3948040258710557,-16.73756116217818,-2.9363809357927755,0.8234148970987352,-12.200466003732227,-1.944450667596692,2.983097871986378,2.779710262135353,-0.4566533192650473,10.106140750565208,-22.043612539460163,-1.3007356075892642,0.5000001773135934,-6.0693172098032155,-5.23347247834725,0.06844473458177398,-2.3931336794632467,-5.185286846139252,15.367139350894709,-16.881841252285714,-4.02356927924612,0.3556782310090238,-8.353646155377067,-1.1486581449081754,-3.315283832795843,-8.077335867004969,-23.309600830078125,17.705230712890625,-5.847499847412109,10.315222452537334,7.412692142822815,-5.293874102148223,-5.0086319327163,4.939120971682938,-12.876117028444877,0.0286312890208301,-5.635853466982983,-1.1985384890061312
34.596177107389906,-61.17328691319258,-10.83151382427854,31.01445673107255,3.651361666330467,-11.33385316983624,-8.526561735815179,7.992180464815857,-15.391670869918494,10.187805623057665,-6.932965437743323,8.57555520110784,3.9933320671329184,0.5516937592155823,-20.163634997499333,-2.930853590932113,0.8220149794549421,-15.020259435421687,-1.8104463538760627,2.981528606708474,-3.563062837875877,-0.47921796686256507,9.20624432865185,-25.6896240385635,-1.3120265271349676,0.5018396227101511,-11.565680984025905,-5.5247161049895706,0.08930423461610805,-5.391321264782613,-5.115051246176579,16.061617066933344,-19.586592766532977,-4.0475463216908825,0.35952630465199187,-9.440257464865784,-1.360441517682318,-3.2793181028350147,-10.892409085119594,-23.309600232433905,17.705230258939814,-5.8474996974856115,10.27476794966837,10.897903826265356,-4.493587657719177,-5.109269064061591,4.966908787860182,-15.192563747152093,-0.036121041357625436,-5.63340567078561,-2.614478300002547
34.02542680327384,-61.05331153161641,-9.236559186707108,31.109439146882874,4.670546885992979,-10.80816887296243,-8.43678027810034,7.967224623653445,-16.751801025096228,10.21306278111113,-6.929421659728345,8.880445898671931,4.120543590927629,4.571938415667432,-17.059456823977193,-2.9353249256076035,0.8231541257733486,-12.747038476385601,-1.892897336658626,2.9844299812252753,0.3399428404608934,-0.43467416995105246,10.36837786172077,-23.99858336822049,-1.3023334544449834,0.5001854900110345,-6.8477592593963434,-5.40935436874191,0.07864146869912593,-4.202294616315763,-5.175162795286897,15.195419433021518,-19.451575069086545,-4.031405101022389,0.3569348430650524,-8.710246296205963,-1.2046157164876679,-3.3067985127927755,-8.819042078397095,-23.309600830078125,17.705230712890625,-5.847499847412109,10.283505300341849,7.042908983850188,-6.0925383997006834,-4.995720058399905,4.936536114905813,-12.584055225864494,-0.023766933568364804,-5.6340240807924555,-2.3439512083576073
34.15329273768244,-61.07674816042895,-9.590642156173692,31.082711582487285,4.395922619329904,-10.949599380751106,-8.588100977261993,8.008739918689487,-14.46241524862997,10.379033539171601,-6.897573740310662,10.903463636338826,4.058937939082597,3.5841933760406435,-16.777257582128982,-2.9364543198808475,0.8234278116455481,-12.16602146580247,-1.9160789959164881,2.9837983228534726,1.437303918487879,-0.45005294588318084,10.194761497806413,-22.54195247104034,-1.3014608221081039,0.5000819092311811,-6.42197693747446,-5.313042481928469,0.07310382291836733,-3.2115539858643,-5.174558631033855,15.392904146453043,-17.93467392843878,-4.023421159327289,0.3557058941252033,-8.347531684785931,-1.176510788076179,-3.3110416729734062,-8.446541269643774,-23.309600830078125,17.705230712890625,-5.847499847412109,10.306916969241609,7.688818882298176,-5.345624183628887,-4.975693226455968,4.931870724035158,-12.127734545018736,0.009383118219527836,-5.6352771621766795,-1.6191940046052982
33.6293215340681,-60.98128659596765,-8.139844194430056,31.12215220738102,4.826032198569561,-10.727679976958232,-8.368785236950554,7.946240761611827,-17.789698902392605,10.258824997188597,-6.921247382566186,9.436756928929805,4.073141519401528,3.850755296812315,-16.75731223382622,-2.937703663531752,0.8236534619724567,-11.53834895787548,-1.8919111682378353,2.983837928974261,0.2930095007543656,-0.48549634647909273,9.338786654366446,-23.247415986741697,-1.3007504651572028,0.5000165858407499,-6.077592083847314,-5.387027547047307,0.07708248897002315,-3.9723231472976392,-5.260637400514403,14.004470516721863,-18.499308648471352,-4.026515541219174,0.3561574604678719,-8.488138345390123,-1.2033677429315492,-3.307043859468439,-8.80233565079447,-23.309600830078125,17.705230712890625,-5.847499847412109,10.317760506587735,6.714041462275786,-5.462849398727817,-5.04754918268271,4.948892925645267,-13.76654160744044,0.018265833874991113,-5.634963823868631,-1.425277985214829
33.82755705949825,-61.0191073384146,-8.690278212010101,31.04571619323795,4.006726504456582,-11.150195437794679,-8.371095803778795,7.946261230880083,-17.75750659427699,10.244596492326298,-6.923228928576537,9.264932262966212,4.10684344428231,4.117450884299196,-17.40137322932441,-2.937133278049898,0.8235588553869814,-11.824006065243285,-1.8664170429373748,2.9839939076455444,-0.9131286335879532,-0.45206578709136824,10.034561227868247,-23.581261101491265,-1.3010870082321364,0.5000595480619419,-6.243579162614978,-5.401499402521708,0.07804977706055297,-4.121215208042793,-5.164212113378598,15.350913776948136,-19.48528485111462,-4.014990947585572,0.3546291206692845,-7.966753195713608,-1.1553201147997085,-3.313979529893141,-8.166400438451772,-23.309600830078125,17.705230712890625,-5.847499847412109,10.26926236142824,8.320225026141253,-5.853222005805333,-4.9870064387503374,4.9347720057901086,-12.387038448858549,0.023837269807440987,-5.634881972473542,-1.3036704674739255
33.23208866316492,-60.91660851595013,-7.046828649150387,31.187591808823925,5.636157981672279,-10.308195588236668,-8.304591990119295,7.9257837990127245,-18.771630684294706,10.384164414773974,-6.898554915509836,10.961263568968555,4.047691549803266,3.275682048800951,-16.931297731469584,-2.941381520872758,0.8243741738047389,-9.673076975791833,-1.9322740716582925,2.9835960786226154,2.2029660631807566,-0.5281093777353376,8.661418374674788,-20.93682963693642,-1.300193262043821,0.4999454136795107,-5.8103487965034475,-5.380568461240765,0.0765734639236993,-3.9056910930983193,-5.353608157985282,12.713462746065293,-17.277632541402895,-4.008882638791791,0.3535794026352632,-7.686866163985127,-1.1699139509690109,-3.312140132678222,-8.358852769596743,-23.309600830078125,17.705230712890625,-5.847499847412109,10.413670525654243,6.535927373992282,-3.516024335067094,-5.13792741614745,4.972484672508866,-15.839392166870255,-0.005215511085468405,-5.634806943616885,-1.9383141344284323
33.758254818193016,-61.002331060954575,-8.494632300954652,30.957134661917316,3.086350407835727,-11.624377716057634,-8.334153133751169,7.935735200335998,-18.317198472835923,10.14093832074101,-6.939815542866789,8.00877994959492,3.996418707429812,2.0110721943614367,-17.51840027466893,-2.9355030736478436,0.8232202458848678,-12.646026640815737,-1.8220776044638594,2.982653865982066,-3.011318712916734,-0.4794346580883314,9.575213142929666,-22.330146639973997,-1.302509188121198,0.5002028593922369,-6.926146628968786,-5.472014470832926,0.0836352836800582,-4.847656510652046,-5.050676842786925,17.32525727155338,-16.871956148805413,-4.031485955758631,0.35687047198384436,-8.71310356927425,-1.2763240714580641,-3.295171545662786,-9.771098898850234,-23.309600830078125,17.705230712890625,-5.847499847412109,10.363503710331385,11.388590489153117,-2.426953332697839,-4.956071284742556,4.927620169906043,-11.681966091833443,-0.1615510315708866,-5.624958048810777,-5.36174264972359
33.49774485565899,-60.959966703433395,-7.77776817287319,30.91709699736007,2.6731640763840376,-11.837194473602885,-8.280961339053544,7.915614832078825,-19.146007937467473,10.142901491662613,-6.939461171293813,8.032669788635749,4.071103695601689,2.799850892488438,-18.587443673864787,-2.9357215563681827,0.8232684974751205,-12.534697972735074,-1.8101421113476124,2.98164505155669,-3.5783292232686095,-0.45731721087368526,9.94111561100264,-23.38272653362686,-1.3036740692948725,0.5003608925087819,-7.487548522096432,-5.466749715569439,0.08340789262933916,-4.793635556859783,-5.0599872159756005,17.10479693114268,-17.599361598197454,-4.039893781998622,0.358284719586328,-9.095400236099268,-1.2890088341455568,-3.292860974264857,-9.940166204132048,-23.309600830078125,17.705230712890625,-5.847499847412109,10.390158886097304,11.764674918956413,-1.6394990251910535,-5.010107302180471,4.940351629825114,-12.913619259434721,-0.17851928706770284,-5.622754225491684,-5.7352937204237415
33.739822761349835,-61.00150980132158,-8.446016651267689,30.960373059608514,3.088594605680237,-11.623787758734396,-8.330733380820288,7.934500737789558,-18.370182500281363,10.180468379729309,-6.933519521431447,8.48764077129077,4.112965289452219,3.5524251697638904,-18.650474130484753,-2.935536385780924,0.8232150386544376,-12.630402125730239,-1.8462895812977738,2.9834391201798276,-1.8657874047122553,-0.44707821978321804,10.209829408329801,-22.98237333147095,-1.3055020140453826,0.5006726909532938,-8.379209010176384,-5.522126658785803,0.0883088124872081,-5.364576736739854,-5.05121009683098,17.23058714835291,-17.586444593623735,-4.0506670996028165,0.36005428145804447,-9.5861321892739,-1.2971947173939682,-3.2914361073166996,-10.048943802843029,-23.309600830078125,17.705230712890625,-5.847499847412109,10.487937991969428,11.68499186038626,0.35614850714983604,-5.09218517624691,4.961583881006792,-14.794796445126797,-0.2275419492782719,-5.616455645005062,-6.814621876712371
32.7076880312799,-60.84594594051138,-5.616486963741707,30.993995636486222,3.4493058367142404,-11.437733234589137,-7.988129874839855,7.801379695060065,-23.725054016945727,10.216869886125192,-6.928788948150313,8.92668371724605,4.083536540442678,4.077123731298935,-16.696138899059182,-2.9352944723994576,0.8231708286579102,-12.753978728803116,-1.7633774185808353,2.97829405567116,-5.796690265469895,-0.430986276925495,10.761635396884264,-21.200035950470312,-1.3051589595569195,0.5005574299315839,-8.210111615277697,-5.454273286582764,0.08210523493008333,-4.664787727273974,-5.0454654841287825,17.40811319350692,-16.80651951904188,-4.031904268933831,0.3569432437757147,-8.732456705474313,-1.3653223440349027,-3.278921584338243,-10.956460802968218,-23.309600830078125,17.705230712890625,-5.847499847412109,10.34728265888347,11.530856790219222,-2.6833168942383865,-4.979764166667823,4.932653036446313,-12.219801607265607,-0.15617327786093518,-5.625447515454807,-5.243161165904819
33.48084008022355,-60.9544886864975,-7.7289822717010965,31.082188527192738,4.402285893669346,-10.946146277419883,-8.348049024103151,7.94013854546439,-18.104619476220076,10.271563762842291,-6.919612968626848,9.590262680681429,4.022853454918067,2.636818963972268,-17.283888808897665,-2.9348996913083094,0.8230809464203596,-12.955032135847029,-1.85674879216242,2.9840873947273723,-1.3698010760176977,-0.4786516348881714,9.683893413517819,-21.512311336278074,-1.302676525025324,0.5002308918525864,-7.009994770807559,-5.469854560068821,0.08344111525336739,-4.82549050194995,-5.0520259580904945,17.397772556942236,-16.109692164977606,-4.033480077055755,0.3571960211196564,-8.803578192832259,-1.269042267655092,-3.2964581702931666,-9.67408891202138,-23.309600830078125,17.705230712890625,-5.847499847412109,10.494772063515173,11.59540008742522,0.44415893828473896,-4.984237728732131,4.9343231084774555,-12.325360022690464,-0.1938953102933216,-5.621484778138845,-6.072347777380582
33.36051250207822,-60.93766431167203,-7.4002431552164385,31.09064548941879,4.501665901677473,-10.894754493713972,-8.320782652459696,7.930780859458435,-18.52470606122315,10.255149643477923,-6.9220032731377845,9.391876547756564,3.9995391924719277,2.2065836704136417,-17.283404200374296,-2.9361038438956113,0.8233286766458919,-12.345210562757492,-1.8467999957695682,2.983714994134376,-1.8409594800850513,-0.4853913430121157,9.470099740615868,-22.10609215466456,-1.302121214477869,0.50015666874192,-6.740984529296236,-5.439428492306036,0.08135749321441162,-4.512278298431466,-5.062621356694409,17.15086315363484,-16.87898675429985,-4.027990598690574,0.35643857453396816,-8.554773527209754,-1.2786079637326524,-3.2948528078019685,-9.80118948123592,-23.309600830078125,17.705230712890625,-5.847499847412109,10.410960004793399,11.07013530184341,-1.6012993844174688,-5.007342730731115,4.941201197940006,-12.860763911007382,-0.14424533907569972,-5.623668375099697,-4.985273766600782
33.61491236201592,-60.98337082449215,-8.10406640418729,31.04221738162811,3.996170666884325,-11.155220734614158,-8.352629255433504,7.9412141282380775,-18.03610234696299,10.414310285904012,-6.891384981729146,11.332483471281195,4.148397358942224,3.7153854544802813,-19.50079519196578,-2.937013257152293,0.8235205371797039,-11.879288995674727,-1.8849136465132077,2.984489512184523,-0.038556881456835515,-0.43842719579543105,10.219402545122922,-24.61437599297178,-1.3030169286887987,0.5002720898371285,-7.1787544204998355,-5.386179265407461,0.07761715543979784,-3.9640972572811335,-5.084953784825791,16.34769676520033,-20.862378724006284,-4.005549755270149,0.35345926142130885,-7.539710918377833,-1.1812449855231542,-3.3098428952959638,-8.51024397643871,-23.309600830078125,17.705230712890625,-5.847499847412109,10.400664557464582,11.249025930149967,-1.7058898346555469,-5.06377669075614,4.95389217694914,-14.144190347039345,-0.10002521770750354,-5.6269470707756595,-4.016384737704394
33.36342001858486,-60.93819740953761,-7.408308688787474,30.9998337576619,3.5078243243176948,-11.407640855329227,-8.245200416266872,7.901905693791941,-19.70400565174805,10.244039577183532,-6.924216511536111,9.256259410677993,4.150923050632941,4.389593419461404,-18.390475668502397,-2.935844934573349,0.8232964040197526,-12.4735658983796,-1.8454850982586328,2.9830908312308972,-1.9048117877125192,-0.4352928544977438,10.528106248243372,-22.44173581462811,-1.3047979317870422,0.5005033730604656,-8.03503698056694,-5.491331944923312,0.08545181804232915,-5.0470686588930445,-5.041720380609223,17.411841653957556,-17.211673641031584,-4.047444786633889,0.35944874065386073,-9.439046507052009,-1.3010792188116695,-3.290737023666041,-10.100824739732568,-23.309600830078125,17.705230712890625,-5.847499847412109,10.536262015438918,11.905264760951919,1.497162274202001,-5.077478582460434,4.957267923118391,-14.456215103763123,-0.24179963963008805,-5.615462715989191,-7.127129861623904
33.62237204693575,-60.978852521498695,-8.119549716504478,30.85801598200314,2.1497711938965627,-12.105186319372068,-8.296739934138348,7.922669954216538,-18.894508927710163,10.074367010701163,-6.94930905026856,7.204282014574875,4.045465436833086,2.059339635638587,-19.054490901430228,-2.9359533935077518,0.8233189447947632,-12.420269387511624,-1.802472420900528,2.9815846333764062,-3.940484140449958,-0.4740941695019182,9.47278796684121,-24.294069337838096,-1.302571411130144,0.5002101629769878,-6.960817287378096,-5.410316424704201,0.07871321269277953,-4.212067123305069,-5.061490130122939,16.98529832929764,-18.410743769440312,-4.029811698759006,0.356632084516646,-8.636637444393441,-1.272193759120684,-3.2958775835508076,-9.716054285375067,-23.309600830078125,17.705230712890625,-5.847499847412109,10.328835651173097,11.891568968256106,-2.8479415221089797,-4.996968489838187,4.936765018605,-12.612068860006326,-0.13057593894806935,-5.6270623538438755,-4.683024589967958
33.12602207470327,-60.89976336244088,-6.755386759363736,31.079091506195248,4.371073007724145,-10.962199407356222,-8.189666339584027,7.884228572659796,-20.55206178454727,10.229967666482256,-6.926598626326727,9.085544291578222,4.1297042405938145,2.905411515977517,-20.316602076709387,-2.934422450714482,0.8229691008595917,-13.20049562033004,-1.841016907867995,2.9836898550719706,-2.115156520157978,-0.5127273167891424,8.662353476677488,-23.948067267231306,-1.3014310912144884,0.5000766548100122,-6.403906982427964,-5.3259539095205986,0.07309438504849633,-3.343913532238717,-4.981780236807334,17.92789182098229,-19.992394557942504,-4.0099371984415155,0.3537536384390948,-7.736200131909927,-1.282608002724491,-3.2940323144063712,-9.854904748537326,-23.309600830078125,17.705230712890625,-5.847499847412109,10.056202257564705,11.720715194592037,-8.686854190953722,-5.111959589322251,4.965120453328208,-15.240861940529527,0.07721637353721507,-5.63618681532095,-0.13703484898874346
34.08088160060702,-61.06234639489408,-9.389000071521096,30.957228520764623,3.0785329690094616,-11.628587069350136,-8.397669634494815,7.955710228965428,-17.34648320618847,10.399231462890944,-6.8953482670652395,11.145709001094065,4.159680970297353,3.770077079157511,-19.781663706637296,-2.9376883684833874,0.8236708933482694,-11.54200287037656,-1.8858671592701401,2.9844079745273424,0.007671059520999668,-0.4271525027519137,10.455532946995627,-24.7008100288129,-1.302255228071354,0.500162889731722,-6.801351937960921,-5.37210094512253,0.07601741706938833,-3.8183153610136573,-5.091335379625999,16.070041511464463,-22.39189182537936,-3.9923253309064544,0.3513673912203085,-6.93506089982276,-1.1456398999270911,-3.314151605349925,-8.040582566563197,-23.309600830078125,17.705230712890625,-5.847499847412109,10.266462962213419,10.48858703705596,-4.923010264091734,-5.033034881145712,4.945987164991538,-13.436373364802014,-0.024749149435949743,-5.632780880085376,-2.3658379289317772
33.62172576550427,-60.98267183594205,-8.121268750050572,30.990911176193443,3.432519827567281,-11.446110914141537,-8.303425010583243,7.924264133857228,-18.794758405462623,10.20684877224831,-6.929221181006563,8.807634222218768,4.125774558641856,3.142043371306368,-19.773528059594177,-2.9350056450990336,0.8230730758617048,-12.904162342328755,-1.8462923396120083,2.9832037531977176,-1.8660657278739117,-0.46415518769765834,9.692028295731474,-24.276070475520402,-1.30258445723941,0.500264311989891,-6.965263632012549,-5.380088430793562,0.07684239940120821,-3.9009501800468973,-5.038784498183028,17.103991275732476,-20.060840956754966,-4.01180223215521,0.3542116525274252,-7.817858705924119,-1.2263819533462135,-3.3028752982818594,-9.108758548610302,-23.309600830078125,17.705230712890625,-5.847499847412109,10.214871461917,11.097527428808403,-5.637758571792785,-5.0569450517047985,4.9519586933534265,-13.982721716436364,-0.029055829704437347,-5.63226619313509,-2.461119860005137
33.570128112815084,-60.97007007517618,-7.975574738374317,31.040502819697984,3.96611123469476,-11.17091085575037,-8.357870658424655,7.943364843748074,-17.95391965027332,10.265630347992538,-6.920700003593121,9.518074383724244,3.9654639924548136,1.947089978073666,-16.614901747748856,-2.9347203085093607,0.8230420594157094,-13.042011592406036,-1.8560172653328402,2.9841140805018744,-1.4042967434282552,-0.5066881817737384,9.198899535147765,-20.368072722725678,-1.3014834224362013,0.5000824288981192,-6.432413388539158,-5.449329528625595,0.0816940394192994,-4.61378048771166,-5.060987862724916,17.327974818979584,-15.619508425605932,-4.0191494373214764,0.35506028166517634,-8.153557826516002,-1.2403830516705152,-3.30112667883838,-9.293750848738465,-23.309600830078125,17.705230712890625,-5.847499847412109,10.427537874779956,11.378410234993495,-1.0944714582476316,-4.954829283663905,4.927352601236611,-11.654049325726223,-0.17803571067954735,-5.62337566894916,-5.723468494774783
33.591860936783505,-60.97262448296724,-8.034487634223769,30.99085513402095,3.409719736772454,-11.458253458129548,-8.328449409369146,7.933804420421128,-18.40502344450668,10.255747055663939,-6.922559908576448,9.397771060934067,4.115701051043532,4.026940040143748,-17.874382445620384,-2.935387956865969,0.823194388954987,-12.701975555822091,-1.8688407357986954,2.984390628987592,-0.7979215037313864,-0.45025196566549697,10.285208707371128,-21.691813365388857,-1.3039213616139844,0.5003930505279438,-7.610989966919239,-5.502550551170974,0.08637275277909078,-5.162487404431511,-5.0290482628670015,17.63418996284331,-16.86002473666266,-4.0418260130351715,0.35860482115527165,-9.183130080236992,-1.2713972990255105,-3.295979981787273,-9.705644538140712,-23.309600830078125,17.705230712890625,-5.847499847412109,10.549469695956647,11.723366585202765,1.660625131814868,-5.088296895264826,4.960192169896773,-14.704778299775535,-0.25975966554018454,-5.6133793022899185,-7.522186310761437
33.566179663586105,-60.96937076735897,-7.96465466931067,31.063408913988013,4.192064350935715,-11.054710448323391,-8.347230366866574,7.940001090516182,-18.11666175704453,10.229924585142971,-6.92614071716168,9.085984946345512,3.9703834926043244,2.0044121585033983,-16.673882474196215,-2.9349931777195293,0.8231024108363691,-12.906854753700179,-1.8445074309951255,2.9837134380171593,-1.9490804036247575,-0.4917112404039717,9.429007930452784,-21.239100092905595,-1.3017211526921035,0.5001087384150925,-6.54592799681519,-5.4524833297249975,0.081960730722562,-4.646258885452599,-5.048861215192409,17.462928047085548,-15.93583169790595,-4.024680709539473,0.3558528935877549,-8.403885417410343,-1.2631913803546226,-3.297397478800049,-9.59654373403446,-23.309600830078125,17.705230712890625,-5.847499847412109,10.409075472028967,11.206081691969715,-1.5843595994829833,-4.951595401916893,4.926691493378182,-11.580694062836091,-0.171305311525081,-5.624014865778303,-5.5755534998926315
33.63398195764222,-60.98100015630682,-8.151736731742853,31.06820485896214,4.240162230387638,-11.029960375197932,-8.362215524898271,7.944933114629551,-17.886703786547834,10.186664567603545,-6.932937172423374,8.561996563433336,3.980572853935788,1.9249938983088364,-17.15559864279698,-2.935631866824275,0.8232465604172929,-12.584407881314137,-1.8316210884218573,2.9831851314479083,-2.5594631956664093,-0.4874380539421182,9.422950400844528,-22.120741980255648,-1.3018970107159273,0.5001299094308194,-6.631775197315207,-5.452341164908121,0.08200286746419701,-4.644998647946414,-5.060983891252354,17.245516087331744,-16.31397407564534,-4.0301755366047685,0.3566784697820601,-8.65373205449178,-1.2807504831310923,-3.2944493104596475,-9.829871734548238,-23.309600830078125,17.705230712890625,-5.847499847412109,10.395233640898685,11.151305304419006,-1.9060748622523682,-4.947346656440878,4.925835662190745,-11.484582670060732,-0.16437061862161825,-5.6246776219026495,-5.42352283989806
33.285107603412214,-60.92976277553237,-7.196563637049754,31.074637604130338,4.3131564722005615,-10.992238086774753,-8.24908782868343,7.902709172103476,-19.64626477054685,10.205632094586754,-6.93023531305631,8.791153414416938,4.001408486856552,2.5076072160574028,-16.796352972154644,-2.93551671997757,0.8232197240276564,-12.643254661317602,-1.8185496286413685,2.9820669049299275,-3.180110387997195,-0.4773659651340398,9.718507698371809,-21.454441701614112,-1.302626179400706,0.5002259141203411,-6.985469173258203,-5.447800210301958,0.08159456356324117,-4.59805439332839,-5.061182118053483,17.254668684214412,-16.218133010767282,-4.026717008149529,0.3561687705058595,-8.497151072446693,-1.292359059205087,-3.292227656338085,-9.984698093625301,-23.309600830078125,17.705230712890625,-5.847499847412109,10.392376839515148,11.160451993631167,-1.9612661047798547,-4.958008954439119,4.928074876760929,-11.726400878427759,-0.16467276910055337,-5.624649311096296,-5.429953724841517
33.92790783464933,-61.03856270009302,-8.969125093496675,30.948824810870065,2.9790861497347323,-11.680023954260188,-8.369936525542744,7.946902413781072,-17.770637382205027,10.36554878142503,-6.902261217117058,10.734081108744544,4.157737775686295,3.87966371274318,-19.50783132897622,-2.937492713868898,0.8236246066746364,-11.64126048896235,-1.8817474841174,2.9844130029968583,-0.1877948373925543,-0.43998190962310246,10.120840343222856,-25.190260141418058,-1.3023920550368617,0.5001905630374592,-6.876210235155552,-5.36937593414971,0.07594850184512988,-3.7907612824164874,-5.088476006561549,16.07794019301449,-22.654716853528477,-3.9911884290994037,0.3513248853591457,-6.888192990831288,-1.1353901971392624,-3.3166949469537643,-7.902753023724841,-23.309600830078125,17.705230712890625,-5.847499847412109,10.262518648296458,10.829173262459168,-4.851106858350813,-5.032468011737795,4.946397540713763,-13.42872371405723,-0.019530700820114936,-5.632885078881742,-2.2520236213824014
33.90422611593702,-61.02824803000576,-8.89815395588269,30.855069764131002,2.1083577497391897,-12.12669394707444,-8.361744427269201,7.944935200440907,-17.893279016324534,10.126912103961061,-6.941542523666075,7.839873928200328,4.056995844570875,2.508335286112185,-18.6232828970498,-2.9359560404176994,0.8233188747151768,-12.419130635779897,-1.807051462447091,2.9816769805365664,-3.7240432573324527,-0.4567570845993738,9.897895177940178,-23.8871640798446,-1.3025357051749014,0.5002072085280077,-6.942145665377039,-5.425534498459937,0.07993439048786236,-4.368808537181399,-5.050792531133204,17.11912607172905,-18.576487565276885,-4.016583562380648,0.35471007616928557,-8.037420209178745,-1.2406670176280876,-3.3008971985372684,-9.297725508073187,-23.309600830078125,17.705230712890625,-5.847499847412109,10.340176679937949,11.6054594110634,-2.782912986354966,-4.969740260609752,4.930685547760483,-11.993094869108406,-0.13074138296464233,-5.627437829506571,-4.686502359818496
34.099399392999054,-61.06628671492367,-9.440816373599956,30.901547362565232,2.5119325975272733,-11.920273986830004,-8.392804412725843,7.954883135528609,-17.417899695453066,10.400479265442057,-6.8959529514900115,11.15887193212436,4.171251223484956,4.148608994355724,-19.47657774791624,-2.937241576989672,0.8235938064964048,-11.771130236994702,-1.8875089105383502,2.9845182556766465,0.08488283688446288,-0.4275902408643595,10.415097127068329,-24.98253440431341,-1.302608345968941,0.5002148543981625,-6.977714561819087,-5.394572811427074,0.07753613100119275,-4.049968241803164,-5.093855156638988,15.97134559530233,-22.932628648657722,-3.990001668978793,0.351173436390588,-6.833551904884682,-1.1060791169413395,-3.3211154487388255,-7.514321741596717,-23.309600830078125,17.705230712890625,-5.847499847412109,10.271276588140015,10.92486792719044,-4.631679371094438,-4.993996209518777,4.936080983698216,-12.54428746687677,-0.05696039983765864,-5.6325623880540325,-3.0699091275083576
34.243263738734996,-61.09645113304491,-9.842938187111793,30.984360419981947,3.3893758914834664,-11.467902849508029,-8.372474157350243,7.9481179567520215,-17.730099649643556,10.329892106071963,-6.90861263541386,10.300663857086837,4.205041449758676,4.470957607620436,-20.04166754291676,-2.9353554921237035,0.823143347790922,-12.724863128268776,-1.8971236540980314,2.98442840923587,0.5399601258654527,-0.4087312813655838,10.816296311114383,-25.084733301668475,-1.303685356371461,0.500399959262119,-7.500444973766655,-5.405395450364253,0.07849073720159916,-4.161504795402061,-5.098820790175,15.956095043580941,-22.463562158201178,-4.009332794331582,0.3539021881729656,-7.706348576635771,-1.1650421580167407,-3.3126787486164995,-8.294741717242374,-23.309600830078125,17.705230712890625,-5.847499847412109,10.166664960456618,9.40272843066102,-7.4732659894372775,-5.076941252347984,4.956328927109365,-14.437216931769035,0.028896925511679793,-5.635565069946922,-1.1926673246844937
33.826566963476076,-61.016971451155406,-8.68572079738691,30.94461176564107,3.000511300952503,-11.667791955399696,-8.346921562525829,7.939340440211815,-18.123949635229383,10.25943338108232,-6.919749264038491,9.447165908393345,4.140252522564821,3.462785495636978,-19.687411089406385,-2.935085907229046,0.8230950595543989,-12.861538254912755,-1.8593544979429542,2.98331111385027,-1.2476141194993253,-0.44242630597007027,10.086587142696727,-25.019233101247732,-1.3031462106348326,0.5003297685534004,-7.237482186482643,-5.401942024725773,0.07825393621379714,-4.125862444050802,-5.087280177988592,16.28926966997883,-21.049765516140905,-4.01400175627653,0.3545573337354341,-7.917549481130871,-1.1908522076760426,-3.3083482234492942,-8.637555061497862,-23.309600830078125,17.705230712890625,-5.847499847412109,10.278224393513865,10.537222588310245,-4.589839296997926,-5.042677279096191,4.947907448011261,-13.6533837417928,-0.06803044942684294,-5.631020189717118,-3.3131226795771433
33.42170210628247,-60.96392859768516,-7.5822585331237935,31.12635220972597,4.935924486517321,-10.670004793574595,-8.287111850197965,7.918800402590639,-19.045425068336634,10.310547771929748,-6.9065507534334785,10.080618747931348,4.1484841154257825,3.9140888959496216,-19.152748081257908,-2.9359967309226156,0.8232528906784509,-12.403541989750417,-1.8663265974242342,2.983699433572152,-0.917830683599235,-0.44900189606333224,10.051277686526493,-24.02443767883063,-1.3027635409536917,0.5003088631798012,-7.054825048539334,-5.376959850291621,0.07681862546423138,-3.8688916272737957,-5.107000724873786,16.063945150069834,-20.479166487465868,-4.01529643118133,0.3547983117073182,-7.976671427668587,-1.2072056767561814,-3.305778878017301,-8.854460512525325,-23.309600830078125,17.705230712890625,-5.847499847412109,10.223464576762549,8.703358180188442,-6.609696539131687,-5.1160010552936415,4.967928308062547,-15.341319318874318,0.0694076288808965,-5.6351071285938605,-0.3072820611290646
33.581068874035324,-60.97101113839567,-8.00491891024154,30.989127013783513,3.3991916878086537,-11.463554677886213,-8.320375026866751,7.93106055774178,-18.529266223698105,10.248035412209564,-6.923877482062464,9.304123174919159,4.137034578372593,4.274341335019346,-18.14098629195597,-2.935565246880662,0.8232344797279483,-12.611898948776215,-1.869909826713073,2.9844115905028126,-0.7473134155735253,-0.44576013825057476,10.354933491492131,-21.944354790312808,-1.3043881730312665,0.5004553954596467,-7.835852082290759,-5.512822893956165,0.08729801920449112,-5.268422063086625,-5.0315465911784925,17.584573684093616,-16.980101640706458,-4.046048522774276,0.35927728344893023,-9.375074769157546,-1.278052140324207,-3.2948490858470145,-9.794131221960344,-23.309600830078125,17.705230712890625,-5.847499847412109,10.576827257828134,11.825211894105792,2.297163882879205,-5.102188385099127,4.963746500875088,-15.02292122624391,-0.26707580660805147,-5.612489781913907,-7.683351730640213
33.57921070874378,-60.97048028436179,-7.999609327280915,30.997545612426222,3.492269318223877,-11.415510863858952,-8.318973720029351,7.930622278025593,-18.5506124619659,10.253738095221262,-6.922838753080041,9.373472554572498,4.175022319763782,4.752890405612443,-18.542382835738557,-2.9357444963908916,0.8232747656090365,-12.523046691604431,-1.8733881121589555,2.984463080282001,-0.5827465642930989,-0.4359848675509507,10.514785613188117,-22.42421720034809,-1.3051687840859179,0.5005565785345354,-8.214232988860028,-5.516654570454603,0.08761879389942924,-5.308016689411759,-5.036553514552388,17.4834383164022,-17.231538746038765,-4.053030646129061,0.3603683382780526,-9.69282641904089,-1.286675441558992,-3.2934041310703406,-9.908729861476413,-23.309600830078125,17.705230712890625,-5.847499847412109,10.623251116405699,11.988741907032551,3.367216556366934,-5.120618517781198,4.968030890643429,-15.442888962475115,-0.27937990809960905,-5.611069184051028,-7.953992772519726
33.3993700387481,-60.94585012297897,-7.508838611048732,31.177531737650376,5.522835304188977,-10.366733658858916,-8.241472828743813,7.903187072832668,-19.748389926612788,10.15266374707212,-6.93848957751224,8.149770194431584,4.112179280096202,3.448693401163007,-18.766362890807606,-2.93337070036376,0.822665775978477,-13.737653710580485,-1.8500390028041707,2.9835583617360486,-1.6878935863220916,-0.4781759049453032,9.460371405304599,-23.594500157739326,-1.3025325609361131,0.5002619110722011,-6.93664059524353,-5.406351411058011,0.07881487503492246,-4.1715141810910605,-5.080985110688153,16.49361719517336,-19.700999926142686,-4.0175305561182775,0.3550869640685501,-8.077671462608208,-1.269262162993654,-3.295469484567357,-9.679082600583666,-23.309600830078125,17.705230712890625,-5.847499847412109,10.140629861048854,9.115446849977506,-8.01960991654387,-5.086926839750534,4.958766288300642,-14.66501669993745,0.02510932491251221,-5.635704028970711,-1.275379236380171
34.64527366489104,-61.18547581001688,-10.971043482122225,31.005735982024667,3.547074122777224,-11.387780233681621,-8.436199643025192,7.968203776101271,-16.756152958519856,10.133610160157422,-6.941351155846041,7.919275056008656,4.004046520437737,0.3084366163835551,-20.95438526324529,-2.9302531218935535,0.8219125630475752,-15.325062165609504,-1.7903269560750306,2.9807484218349063,-4.516728457603781,-0.46692635724677106,9.403872508363458,-26.344595981341644,-1.31518976923043,0.5024452518106105,-13.1134096503032,-5.5903040578323,0.09494318356160325,-6.068349035750898,-5.101464077795297,16.111852191405752,-20.854139450290166,-4.049365961722595,0.35973255205701177,-9.526133965237843,-1.382294528900994,-3.2756000990650582,-11.183288115998618,-23.309600830078125,17.705230712890625,-5.847499847412109,10.276413697020878,11.30241339394262,-4.3046997309905715,-5.171966115014699,4.982254281714655,-16.62577806484854,-0.03836388298155937,-5.633628871168587,-2.6630053619453
33.66284802227862,-60.99009930166242,-8.235127461786101,31.014909183677627,3.6676794785156046,-11.325223923275917,-8.308191830060252,7.925522169542267,-18.72285839321834,10.278373138134793,-6.917553537443088,9.674905012554083,4.139085797345692,3.638435686233187,-19.315059777502544,-2.935242402975174,0.8231455118935885,-12.785667969594357,-1.8637406092068,2.9840936244901357,-1.0396655197754534,-0.46436443516058573,9.685672386208921,-24.29581421817904,-1.3022217172830477,0.500170465827691,-6.790076805830036,-5.367388836743442,0.07579896492865942,-3.770244602416902,-5.03294444485012,17.04427539223591,-21.17355075288119,-4.003610350472656,0.35299720779274973,-7.45016648652112,-1.2045529000773914,-3.3061566820397887,-8.819534134576509,-23.309600830078125,17.705230712890625,-5.847499847412109,10.177429654716004,11.022602906585103,-6.490957772045587,-5.043797704342821,4.948050643561717,-13.681013082426114,-0.0015128579630043742,-5.634427775473732,-1.857935634759529
34.679534990420755,-61.19331813829965,-11.067431518775484,30.99402856676387,3.428848665386856,-11.448634357306707,-8.435317877100035,7.967908263826398,-16.769707207750137,10.121818385186645,-6.943065072025074,7.776723577976765,3.9985944279591883,0.27501236848560867,-20.835889068782897,-2.930167386337942,0.8218891598349698,-15.369392890501516,-1.7926010294193027,2.9808939896800215,-4.408854028721589,-0.46826417983487933,9.401189852779426,-26.099842650528682,-1.315265800923283,0.5024615856185446,-13.149625144121597,-5.595583498941885,0.0955094766218307,-6.122851256149461,-5.10334276444622,16.10343819418266,-20.693479424233068,-4.053008567480722,0.36035078020630285,-9.691350173132907,-1.3894263552049622,-3.2741668172294665,-11.278490021715708,-23.309600830078125,17.705230712890625,-5.847499847412109,10.266875037819409,11.318120453614632,-4.495384652132452,-5.170334570214996,4.981799927727866,-16.58831962901332,-0.03275286907587662,-5.633860989053233,-2.540324122758598
34.64737304497784,-61.18626484281161,-10.97724404117108,30.9407019553336,2.9972199001161166,-11.668555642801147,-8.409442295854516,7.959896072993355,-17.16447046087378,10.115230319283077,-6.943848079556187,7.697414444813788,4.015304120929152,0.596010346642975,-20.803581516460117,-2.9303138466815883,0.8219260226020095,-15.290533168210818,-1.786811102886332,2.9804389509870837,-4.6834001217985755,-0.4578519283698147,9.623947386693995,-26.147794894856503,-1.3141998981908192,0.5022629517106674,-12.629784688241047,-5.578250134858244,0.09382254965182243,-5.943983842704354,-5.081411009104274,16.412617990302948,-20.73339196639465,-4.050796333437362,0.3599928331328738,-9.591003561573235,-1.3937394985695837,-3.273286226799134,-11.33621263878445,-23.309600830078125,17.705230712890625,-5.847499847412109,10.257809251305954,11.423815946929572,-4.614629797576823,-5.151967900321142,4.97732214453443,-16.168390398294328,-0.044943080843550476,-5.633106047250651,-2.80729390332106
33.95238115026439,-61.03746703461171,-9.031910729213127,30.761402845195914,1.2583833512804814,-12.562279343842429,-8.350579571342227,7.9411314382479885,-18.06503933134075,10.144898655466283,-6.9380628658486,8.059006256757588,4.0796755638114295,2.7450728281205983,-18.950618533830514,-2.9359238511501355,0.8233106940268167,-12.433994078137495,-1.8103260004284671,2.9815985244668672,-3.5692709742423867,-0.4488314979357783,10.00825374797526,-24.45751716683379,-1.3025259974036283,0.5002044106170108,-6.933433603026231,-5.388127656154359,0.07712392492704574,-3.983620269213445,-5.051468908399179,16.966271395577497,-19.76293980570903,-4.006865184257709,0.3533614754572453,-7.59698589150795,-1.2024399985819167,-3.3069453106383646,-8.79037112702743,-23.309600830078125,17.705230712890625,-5.847499847412109,10.313121346894922,11.896788138619783,-3.1608868152782,-4.986963621582258,4.934309689796263,-12.383420853700265,-0.11329967828505405,-5.628673901384015,-4.304073686667969
34.01760083577822,-61.05050389047962,-9.213561064716098,30.6814053659683,0.5901829270898398,-12.903305036890496,-8.343137633016973,7.9387178528014175,-18.179154014532678,10.049562657657662,-6.952392296249971,6.905298565369077,4.063357534043233,2.5458401676135365,-18.762749507605182,-2.9352516716219283,0.8231624515938266,-12.777082813924665,-1.7897279717346062,2.9806763414407222,-4.544346115608529,-0.44815466985181995,10.04130873682623,-24.287948024983834,-1.3031110663821377,0.5002797690871056,-7.215211980692483,-5.411146966143816,0.07880345950268404,-4.220695029423643,-5.03222319942911,17.3490160042881,-18.853962992634838,-4.018814194638061,0.35498461826161704,-8.137911879561583,-1.2557718094822008,-3.2986097192794532,-9.49791774785128,-23.309600830078125,17.705230712890625,-5.847499847412109,10.29852699223655,12.140392088432304,-3.3138658345705005,-4.9810731396996175,4.933031238539735,-12.249824380571969,-0.13723233325954037,-5.627138331767701,-4.828047309137189
32.735729654653255,-60.87167832178901,-5.710251540393799,30.564258035746366,-0.022021916268039555,-13.205269047259062,-9.475539067016154,8.134419500284778,-1.3332731633495192,10.701733691561815,-6.820622853164406,14.879058450839413,5.295944547211188,7.4225861256805175,-58.29615134541882,-2.847837249380828,0.6866732412522174,-101.75651596516235,-1.0183111333586874,2.6133337169660544,-45.902487162546414,-0.1519173047902166,13.10213928349999,-63.09812447568389,-1.4053211218949566,0.6399772158699607,-100.31708724043837,-9.171709073913034,1.9723389757332541,-48.73325354269249,-4.782351646962568,16.36831752314155,-67.62252324781443,-5.092515898021945,1.8462158368989958,-100.10975220134308,-3.984954710560885,-1.6600138322750517,-52.27550544824014,-23.309600830078125,17.705230712890625,-5.847499847412109,8.043815122558506,3.69399970070531,-68.67383559740145,-7.001577179314731,7.563138872620482,-92.20083904832299,-1.6339318352062677,-4.9896184128627885,-41.01084549175931
33.54367972453184,-61.14145129231192,-8.096608682847375,31.00863720131725,7.200566723053868,-9.452789395606871,-9.412781807555287,8.077737056553476,-2.388351030928285,10.195789201898943,-6.88576728977863,8.716036364387813,5.103526879679785,4.480290664943787,-56.32762136652657,-2.849795172221169,0.6795206269883238,-105.42303372242944,-0.8181521344097622,2.2883246496604093,-64.10026480497541,-0.28366070681826516,10.421788266105768,-60.74376414130013,-1.4036791357400313,0.646728251952204,-103.66013465708208,-9.742028248603846,2.8853794638608905,-59.839857671662045,-4.82812860412704,16.001385470881672,-63.51779546630617,-5.070762157753835,1.9222146262922664,-103.63958667366796,-4.360390729940901,-0.9824320229802792,-62.46100424781254,-23.309599159474303,17.705229443953996,-5.847499428320488,8.255655440918083,3.2011856692298166,-59.315034708530106,-6.941878860731182,7.820966494102436,-97.96656844411726,-2.0973877022156575,-4.408373632829233,-57.358223824339426
32.750961408302054,-60.85354108882747,-5.7359411098645126,31.442595884933997,12.243700825335754,-6.8584542865996765,-9.63111121756176,8.1340779071564,0.9450202643111665,10.31915730772828,-6.906913909345365,10.178242314839943,5.155379104553861,4.485523799060091,-58.717021033523665,-2.8505485119846,0.6754159208967614,-107.50632145229777,-0.7697148848940741,2.215042977834042,-68.33901287666939,-0.26515487549848576,10.709425305576252,-61.92685686867495,-1.4027777890622488,0.6513926900888273,-105.95305961575794,-9.876605470590835,3.018644339180942,-61.77825757382624,-4.849703738271347,15.56597904900425,-64.48810976952595,-5.0629053267562,1.9769462573932763,-106.13784041801871,-4.468600386956985,-0.8568203930040756,-64.63424269459327,-23.309599407224557,17.7052296321365,-5.847499490471783,8.234006884566998,1.85736803471073,-59.721199752228515,-6.946736656930253,8.00328798550272,-102.0656829249452,-2.174449980743346,-4.33252699004983,-59.73276235028328
32.731574346200894,-60.851059085540214,-5.6831754226876665,31.519707995657747,13.534346637553364,-6.187606340408386,-9.644267827973831,8.133741677902043,1.1376745769511625,10.286657913928867,-6.914319629412321,9.779122564828743,5.149490528421122,4.086816573189644,-59.43900707015555,-2.850716587471358,0.6748443453931555,-107.80107989464891,-0.745187743007422,2.1747291101368385,-70.58609076543632,-0.2800812043595407,10.365365393304003,-62.19172231630076,-1.4025924249492308,0.6520774651280027,-106.2945101575594,-9.944955158646405,3.1322445980748586,-63.14726815919583,-4.859471875795853,15.438009133431986,-64.35259886984731,-5.058794701700295,1.9928528980161544,-106.87558227194195,-4.519300818642422,-0.7643023834398156,-66.0239823678854,-23.309599407224557,17.7052296321365,-5.847499490471783,8.249887272125838,1.8978424827927967,-59.179271807865305,-6.936760941097974,8.065264242294543,-103.46003649597563,-2.2134239760887113,-4.2754500160996844,-61.24884838727976
35.52796597166055,-62.25046738243174,-14.578404592222745,31.18710534750794,9.603608902742359,-8.218831529053372,-9.114674851179084,8.041359938145117,-6.789991122746794,9.686422837972476,-6.954142354428323,2.5611869691579097,5.14017643747573,5.171128864385105,-56.171633100240776,-2.8507928054828007,0.6746376621558751,-107.90269096694287,-0.7496812131455945,2.191227119746851,-69.77920205007169,-0.2552060776094415,10.900329284913019,-62.29264112394376,-1.4025446859751889,0.6521804713807451,-106.3401815382213,-9.848025533727817,2.9495699397164037,-61.014167643399254,-4.920226718607748,14.37098979187059,-66.9282018746998,-5.0556987437756,2.0019853736371624,-107.29666988154096,-4.422641068771252,-0.9628665274937683,-63.11818304353119,-23.309600830078125,17.705230712890625,-5.847499847412109,8.125418507194713,0.33497729258938974,-63.59996492398331,-6.939367285022859,8.047288794695957,-103.05095924490354,-2.14588742045678,-4.385534182845209,-58.42229780571042
31.669771506609084,-60.75508165770246,-2.82293038150471,31.556667921908662,12.467734881952289,-6.748964219542094,-9.503856180029748,8.136467369123809,-0.9185450570802971,10.350069565890049,-6.90552893353082,10.54479737663181,5.1650679599094,3.1442838042560988,-63.25151097199502,-2.850900840593403,0.6741693179378526,-108.14660503446233,-0.7523682899708047,2.200690137645203,-69.31671750908205,-0.2702699085729549,10.344357323903743,-66.1789587159094,-1.4026990016854115,0.6517294606901911,-106.11191403397625,-9.94156908293768,3.113206200384609,-62.95659795580997,-4.976030179667559,13.375993461806996,-69.2662743697556,-5.055700660121856,2.0037709498935876,-107.37400887682627,-4.452562616928213,-0.9159125903774527,-63.846804450460425,-23.309600830078125,17.705230712890625,-5.847499847412109,8.06537899716555,-0.12788006433625795,-66.15853781520212,-6.944063778483757,8.048461490629498,-103.05635600928096,-2.1776349045397945,-4.340915078290532,-59.61692092955398
31.725417540296256,-60.7583001228619,-2.9715306862253166,31.560492134934623,12.635639649997149,-6.661023780059058,-9.528910826615727,8.136708516901871,-0.5518063929669061,10.42575574255752,-6.890303910600153,11.468802359775495,5.169234391726169,3.468553541668372,-62.42682351465508,-2.850901179442446,0.6742120369310167,-108.12422074448322,-0.7483506778280773,2.189881934594433,-69.86181922764888,-0.26412321697127994,10.51155801095781,-65.56202375002557,-1.4026393885560957,0.6519259069494258,-106.20938972065053,-9.949177729054574,3.1287191910141114,-63.13424197243476,-4.955023299548246,13.720140991937246,-68.89284256116954,-5.055477259470592,2.004513461466874,-107.40825390819364,-4.454507029426875,-0.91176052274562,-63.90677499814628,-23.309600830078125,17.705230712890625,-5.847499847412109,8.080950571365403,-0.04158961063034923,-65.45298569712881,-6.941179917370386,8.061043288864193,-103.34248461986947,-2.1659293943446807,-4.360003917448542,-59.12696273208343
32.79966239728385,-60.85738176680261,-5.8666044982157475,31.563312689276092,14.591939714551415,-5.63523337587757,-9.669022168413623,8.133979446727563,1.4998662564023717,10.285711303812022,-6.915030026155735,9.76633179904369,5.121096375302266,3.9544550153183486,-58.19248076353479,-2.8508412976433717,0.6743251633947549,-108.07043031411868,-0.7409715231141722,2.1657281548288942,-71.05563898912443,-0.3127773453113624,9.778049266563293,-60.07196598146417,-1.4022230615785218,0.6535122637710025,-107.01411335080711,-10.003180815457574,3.2575631880486866,-64.57263764895026,-4.844621282580825,15.901396620042664,-60.69898393224382,-5.05449164111643,2.0084320151985953,-107.6060337773888,-4.560078656595536,-0.6571098706614036,-67.53535909823634,-23.309600830078125,17.705230712890625,-5.847499847412109,8.404820902733885,3.421264901899465,-53.49087427953354,-6.920420515070279,8.136979177872172,-105.09062322342841,-2.2569488066035497,-4.188499751088573,-63.37769295474959
32.72633343005602,-60.85754713208039,-5.674286914782359,31.596866893091164,17.17264813870181,-4.28426153903619,-9.474965958841953,8.135479638608222,-1.341180958588905,10.260375238862053,-6.921280620044248,9.455018039223372,5.0960347688175975,2.63237952573388,-60.67869579643768,-2.85088792094719,0.6743740424350904,-108.04011136891236,-0.7230841286241227,2.1135590418676298,-73.66425887754637,-0.3145051421477505,9.644590744007669,-61.49825675414182,-1.401928375304478,0.654466773711432,-107.48566298866224,-10.037416326073672,3.3134642394981406,-65.24180713036056,-4.7805982235831355,16.667720994992084,-63.01711009848468,-5.047786080915019,2.028754123859267,-108.55030563277803,-4.540430872745979,-0.7250206267015299,-66.60772513842225,-23.309600830078125,17.705230712890625,-5.847499847412109,8.329743335458392,3.7743255853789024,-55.93766441046163,-6.911668115758566,8.174625216876859,-105.94151853474628,-2.227547681822385,-4.251618552631308,-61.85407868890379
33.10115198841443,-60.89640198722384,-6.687557804595885,31.59602867553386,17.262324149159603,-4.237287126740052,-9.450773805531012,8.135073782910755,-1.695236593229973,10.215107914443838,-6.929231210419647,8.904987159739422,5.087312284477025,2.2681009163920267,-61.32510508626906,-2.8508817673847515,0.6744018495750345,-108.0258571149365,-0.7231746062483259,2.1138350430528026,-73.65081051644748,-0.3245601744811112,9.400729532426135,-61.8877931382285,-1.4019010472506883,0.6545243807422925,-107.51435253262653,-10.035789857434883,3.309863939609861,-65.201248944009,-4.789955029960526,16.484227061679164,-63.79453664077664,-5.047778802680393,2.0284969052122883,-108.53792587765822,-4.534748290898468,-0.7382817980977825,-66.41851654804901,-23.309600830078125,17.705230712890625,-5.847499847412109,8.306765539884662,3.643945179283753,-56.803770371126575,-6.915436437341647,8.160052033859932,-105.6080485722348,-2.222391838990957,-4.261099449709093,-61.617985511002374
33.10115198841443,-60.896401987223854,-6.687557804595885,31.596028675533866,17.262324149159603,-4.237287126740052,-9.45077380553101,8.135073782910755,-1.695236593229973,10.215107914443838,-6.929231210419647,8.904987159739422,5.087312284477027,2.268100916392026,-61.32510508626905,-2.8508817673847515,0.6744018495750342,-108.0258571149365,-0.7231746062483259,2.113835043052802,-73.65081051644748,-0.3245601744811112,9.400729532426135,-61.8877931382285,-1.4019010472506885,0.6545243807422925,-107.51435253262653,-10.035789857434883,3.309863939609862,-65.201248944009,-4.789955029960526,16.484227061679164,-63.79453664077663,-5.0477788026803925,2.0284969052122874,-108.53792587765822,-4.5347482908984675,-0.7382817980977825,-66.41851654804901,-23.309600830078125,17.705230712890625,-5.847499847412109,8.306765539884662,3.643945179283753,-56.803770371126575,-6.915436437341649,8.160052033859932,-105.60804857223476,-2.222391838990957,-4.261099449709095,-61.617985511002374
32.79966239728385,-60.85738176680261,-5.866604498215748,31.563312689276092,14.591939714551415,-5.63523337587757,-9.669022168413623,8.133979446727563,1.4998662564023717,10.285711303812018,-6.915030026155736,9.766331799043693,5.121096375302266,3.9544550153183478,-58.192480763534796,-2.8508412976433717,0.6743251633947549,-108.07043031411868,-0.7409715231141721,2.1657281548288947,-71.05563898912443,-0.3127773453113624,9.77804926656329,-60.07196598146417,-1.4022230615785218,0.6535122637710025,-107.01411335080711,-10.003180815457576,3.2575631880486875,-64.57263764895026,-4.844621282580824,15.901396620042666,-60.69898393224382,-5.054491641116428,2.0084320151985953,-107.6060337773888,-4.560078656595537,-0.6571098706614035,-67.53535909823634,-23.309600830078125,17.705230712890625,-5.847499847412109,8.404820902733885,3.421264901899465,-53.49087427953354,-6.920420515070279,8.136979177872174,-105.09062322342842,-2.2569488066035497,-4.188499751088574,-63.37769295474958
32.655547330304024,-60.853423713406826,-5.485101030768123,31.547932538326258,13.725207451226703,-6.089492781202261,-9.43726879499685,8.133382069295422,-1.8932966714618271,10.392830894815678,-6.8954506470621215,11.070579003038725,5.133196378272038,3.215847628723302,-61.18230900762943,-2.8508171491799237,0.6744945943427797,-107.97783220958536,-0.7527371254000393,2.198493560307607,-69.40786776506782,-0.3000312729995141,9.85735215940174,-63.25322120248122,-1.4022127080745614,0.6534098834201055,-106.95302081016484,-9.955537631566411,3.1439267885221573,-63.303109611598316,-4.857257690678134,15.397471750061294,-65.17212091841625,-5.052882889501388,2.0129104075895516,-107.80333272344376,-4.5051395346004055,-0.8036753211020422,-65.47472868347026,-23.30960100590107,17.70523084645992,-5.847499891516656,8.242415128773867,2.2407657854652454,-59.16272061890844,-6.926520939695228,8.116953615564409,-104.62255705348555,-2.1874058261514344,-4.319701739743765,-60.12498300985449
32.83305464647631,-60.87279413338871,-5.966042464941222,31.58096776318198,15.750416769286824,-5.029250026824103,-9.481308206871782,8.134091305636536,-1.2488056767515539,10.330157365230054,-6.907975600883217,10.30521223374628,5.132764828880487,3.6862652477625004,-59.63437977353999,-2.8508699189194058,0.6743371449549592,-108.05918187816803,-0.7360020900150135,2.1533649397418344,-71.68532809477247,-0.2824331225946913,10.368577228741097,-61.145803805267384,-1.401969352385105,0.6541941322232049,-107.34777020756562,-9.99465965587493,3.2220391388894667,-64.20299948907754,-4.751690485080517,17.096012689490596,-62.79088604024978,-5.049392864031228,2.023484898750207,-108.30096586274048,-4.506997032446466,-0.8002744648723314,-65.52606366684668,-23.309601090945158,17.70523091106628,-5.847499912849653,8.3154801431357,3.1284519744950594,-56.49216621433355,-6.912339532481113,8.17164066663868,-105.87377786304405,-2.179246567873242,-4.333562742619913,-59.77362117527965
32.245530880295924,-60.80394151520708,-4.371615506683803,31.52603753383927,11.580949621454495,-7.212598369906611,-9.614222146472324,8.133785907634522,0.6974882183152579,10.46563011063943,-6.881458426868657,11.957898922623418,5.122960319892629,2.9862495333755996,-61.19634326076846,-2.8508009816782325,0.6745508731052807,-107.94615809940822,-0.7490654079913038,2.190504229450666,-69.82242285040495,-0.2979166980664767,9.912996897792885,-63.08732347953865,-1.4022354227747957,0.6533052929322842,-106.8978163030001,-9.951802062796155,3.13565345959064,-63.2097557413955,-4.864597867918633,15.28282766137994,-64.99968297573874,-5.053488946135139,2.0109137527789076,-107.70643141806742,-4.478191865744212,-0.8596280100773228,-64.65855483371365,-23.309600830078125,17.705230712890625,-5.847499847412109,8.215668918002581,1.8246693169765897,-60.171429031649964,-6.92767540624305,8.106653526012451,-104.39277297068634,-2.167855770322006,-4.354264397473132,-59.25673307368986
32.50865750419295,-60.834383526280625,-5.085358867590744,31.55451232504968,13.115766325224788,-6.409204720794079,-9.556703744499487,8.134474363073315,-0.14460596942924084,10.41224030214295,-6.891323118065154,11.308077355500089,5.1108273356797715,3.2164451572033848,-59.97867977493896,-2.850439433816305,0.6761180007378028,-107.15611152790996,-0.7468453140014579,2.1833275191301893,-70.1775587951839,-0.3050385829285663,9.832469672147294,-61.97458826834297,-1.4024527797944404,0.652328606363323,-106.422654102821,-9.969933594342928,3.1740491272549525,-63.64659424092397,-4.84093056970102,15.691471641304824,-64.19848006893501,-5.05309680095989,2.0119184900609715,-107.75916293971116,-4.495164792102716,-0.8234559082363766,-65.18358801276621,-23.309599719375484,17.705229869236536,-5.8474995687786615,8.228668920242207,1.7864640133059737,-59.641496178498436,-6.918806323652307,8.146077594971391,-105.28560211219681,-2.1565816774384174,-4.37362009953481,-58.76650003678317
33.19776061921814,-60.91011373908541,-6.951602618704811,31.594479103956434,17.35100774797524,-4.190832342335954,-9.497455824757466,8.136310090243557,-1.0121798281054855,10.191648533616224,-6.932745705093145,8.621224062676761,5.081616124480974,2.365073376746098,-60.67950238981126,-2.8508505617678606,0.6744261229020467,-108.01301238799552,-0.7234516873134619,2.114783045249042,-73.60402018905454,-0.3211803102399508,9.524408647435159,-61.09027011171162,-1.4018982257310024,0.6545069997242303,-107.5054209946071,-10.01668213009047,3.2688964094848516,-64.73594437389926,-4.776903592650845,16.724142578509724,-62.97135455018986,-5.047969227376735,2.027811659050547,-108.50543111001643,-4.517363024336225,-0.7766187623130126,-65.86540724914188,-23.309600830078125,17.705230712890625,-5.847499847412109,8.32797666900265,3.8082420361429534,-56.033117220404144,-6.91490361122761,8.16208038964648,-105.65420435539502,-2.1923097675289442,-4.311940984791651,-60.32612042607376
32.888709645982544,-60.86846513312528,-6.108683088815469,31.530741721413754,11.602435861746125,-7.201655060299498,-9.48093057451685,8.13548093358483,-1.2540734642929117,10.46552050900466,-6.8816597922597,11.956107440184194,5.11538878096904,2.6455728831122474,-61.82802921501618,-2.850818021407884,0.6744846019228325,-107.98169413606338,-0.7710894239163811,2.2475344192686646,-66.93104853718158,-0.322751930170876,9.27587819087849,-64.72668495572849,-1.4020386611763893,0.6538724101656438,-107.18537371027992,-9.865200125360833,2.9669772258492744,-61.258241856574855,-4.9627570046120315,13.674909504375748,-67.663095205876,-5.061364474351921,1.9850858428453542,-106.49780246776982,-4.475321489526498,-0.8688306761294676,-64.53400643428196,-23.309600830078125,17.705230712890625,-5.847499847412109,8.140897494502111,0.5715666534152798,-62.98685064325948,-6.93332123952914,8.09255849219397,-104.0621883666824,-2.1120639827532,-4.446525808287046,-56.897977587966274
32.96087218129876,-60.877570095984105,-6.304984226093077,31.535482461921895,11.740700237008722,-7.129351052369588,-9.472342712282025,8.13529128329978,-1.379725644365229,10.47878834198982,-6.878687187135752,12.118879569268923,5.116285621549903,2.6300411273014617,-61.936275746545036,-2.850816020909294,0.6744781011366681,-107.9855946557182,-0.7699734337499203,2.2449175627044355,-67.06511608942783,-0.32488010673732426,9.225760891010259,-64.78463845789096,-1.4020575701521747,0.6538341356680106,-107.16634383353812,-9.86793475217661,2.9721900976524216,-61.31852651447965,-4.968870078842073,13.56868678447967,-67.85576372713493,-5.060860760975072,1.9867119350958258,-106.57399923404994,-4.475012505349598,-0.8694237417156996,-64.52492263827556,-23.309600830078125,17.705230712890625,-5.847499847412109,8.134276696297515,0.40359771961357377,-63.21485299823202,-6.935161570171291,8.084298703186631,-103.87364200463212,-2.1171923458277084,-4.438573343578564,-57.10453187697186
32.698214187525885,-60.85053913540351,-5.595053632992924,31.53884650714639,11.93091182405249,-7.029709720015859,-9.316533289484287,8.12691995064341,-3.662456067928983,10.446416487916716,-6.88527001480806,11.723359462031741,5.139139205161574,3.6181463720865805,-60.23778639114494,-2.8506762672225063,0.6752692947721279,-107.57093840301475,-0.7739576146708536,2.2535484145323985,-66.61551884453607,-0.2984488199223401,9.86948886639955,-63.71394439174844,-1.4026901252692718,0.6515079852433591,-105.99581269037333,-9.839478585490783,2.920826025263178,-60.713608462259835,-4.93589867036233,14.161219592446333,-66.42503064994335,-5.051187628708446,2.015810590445041,-107.93311542066927,-4.365269903955536,-1.0804917667984542,-61.39828643416928,-23.309600830078125,17.705230712890625,-5.847499847412109,8.126879395167954,0.2768807735393183,-63.53264374291549,-6.910732679878761,8.175729033898614,-105.96794875133662,-2.0971797847358156,-4.467869710548054,-56.32926374692297
33.54888001634927,-61.186059606027584,-8.147534854270774,30.99053207738915,6.808519404598539,-9.657814092904164,-9.061613391323723,8.0004020879537,-7.752665180755253,9.829223213251057,-6.684345971285869,3.7237712838293158,4.960494843526357,4.341164956511355,-51.12317032452304,-2.8508320750950924,0.6990226673235517,-95.51268824351277,-0.8994010525190118,2.3999579996839,-57.42470434513009,-0.32636934934314754,9.829075675769836,-57.197528638232896,-1.4026560475686085,0.6276313135822795,-94.23475079156984,-9.43630047981615,2.492548978661296,-54.634370038140744,-4.89327722280542,15.497701176823767,-59.08128214922776,-5.051058273140223,1.7029486331754728,-93.39532197831724,-4.1455876636302404,-1.3007013410520043,-57.36211216325434,-23.30959958565153,17.70522976766363,-5.847499535232428,8.418698559969524,3.8656925583907986,-54.83833047165073,-6.931408887375585,7.545516924963313,-91.75149585610116,-2.009282444190496,-4.512860400226926,-54.31950208180335
28.781366450112777,-60.835619184202166,4.767622130509049,30.217603402001156,-2.7189951929056826,-14.575149982429977,-8.570834780631884,8.001752423149503,-14.72978074309259,10.77527856567037,-6.801750848416523,15.788550881409666,3.5158358209119145,3.471756425425513,0.5254945550408513,-2.925573772171529,0.8204367757796621,-17.76691055120113,-1.5228825698023691,2.9283540588638055,-17.437064567666425,-0.631244705550255,8.454037564691301,-3.4092892703191886,-1.311951707411961,0.5018259015363163,-11.541921914061067,-6.332090702054724,0.22686996765414827,-13.820946478553372,-5.312627068991516,15.07708951339195,-4.042211092725513,-4.1169715396605495,0.37437039416944995,-12.640355179792683,-1.6407434004540136,-3.2123838606077655,-14.673274379234375,-23.309600830078125,17.705230712890625,-5.847499847412109,10.991292598279617,14.902051313737639,13.650862347263034,-5.53309919895901,5.122603575045454,-25.240620026583308,-0.7069557126407311,-5.509622278808672,-17.575960239524182
28.669844435223013,-60.84213828882016,5.059946478237435,30.36236779360066,-1.651113007282675,-14.034464141081727,-8.507875591220678,7.98787848229136,-15.672089487115107,10.702846742179892,-6.818203451277123,14.899229732359368,3.6422250448009192,3.914014985282099,-2.748110099811288,-2.926124976119525,0.8206247564911052,-17.467616914100635,-1.5200520031190583,2.92744777216201,-17.57651933381878,-0.6180469336233906,8.363973238545634,-6.589595273847332,-1.3127202596085012,0.5019458596794728,-11.905721977310222,-6.293138427134532,0.21677035248568893,-13.405844912401278,-5.313423839890718,14.876418768486825,-5.749287666479922,-4.149807310210714,0.38126960494562995,-14.137572663406107,-1.6992004935215603,-3.196142990332179,-15.468053023172939,-23.309600830078125,17.705230712890625,-5.847499847412109,10.906550676726635,14.654542768937043,11.560781554598226,-5.541218602958973,5.126121761471497,-25.432182587349573,-0.6972331082315806,-5.5120166758545235,-17.3565640227075
30.696499909415376,-60.761481073249726,-0.2580671970275835,30.55431555363113,-0.2581208455939981,-13.330633835031966,-8.783063770333936,8.053457667087983,-11.541320319323516,10.873689826409315,-6.768898747961056,17.031442975015786,3.8124635819236348,3.6700967916595695,-8.622382078724065,-2.9355161094121955,0.8230424096537737,-12.660189678174167,-1.7220945926614273,2.9654181369193435,-7.812344278396732,-0.5580311575429258,8.978871684975307,-12.532353062077696,-1.307077164285334,0.5009078600569626,-9.153891416171819,-5.865364603469257,0.13676110813242356,-8.929430407324148,-5.202673946677423,15.756574316892014,-11.713297603314087,-4.07310350039143,0.3648935330550896,-10.623589759848329,-1.3494166713530629,-3.279452475096027,-10.75103111766895,-23.309600895160855,17.705230762333024,-5.847499863737832,10.679509398046799,13.553005684738451,5.830915869120323,-5.3637594620895515,5.050557505187802,-21.149076011737527,-0.38533941241941444,-5.590996716022907,-10.310991151177472
31.61176322670416,-60.75902742342164,-2.672448980031532,30.722310038042053,1.2430256657644994,-12.562176819451722,-8.824825705262736,8.060399001824143,-10.924041765646532,10.767101001992648,-6.803559632369172,15.688521300617529,3.849851316275951,3.1773581737200343,-10.681915338219957,-2.9402247238523187,0.8241432056833171,-10.266008535147295,-1.8580466710389945,2.9820762427502254,-1.3138475414676372,-0.5615145519944911,8.728792952287474,-14.012885170913876,-1.3037422927783078,0.5003932377127833,-7.5287403089035205,-5.632996230144313,0.10121559518266894,-6.511841816044381,-5.20955276863836,15.595596862627584,-12.22024754754375,-4.037030603386247,0.3580933148962474,-8.970725324721023,-1.2389064933909963,-3.2997244243826964,-9.278037234410139,-23.309600830078125,17.705230712890625,-5.847499847412109,10.70496533231706,13.06378167280342,5.891861137909426,-5.280739319198135,5.020330963672711,-19.184698402108484,-0.3063827701582156,-5.603916260531091,-8.562303473969756
32.50546040787147,-60.82463105959621,-5.0694996902526395,30.83217643068278,1.9423408111891505,-12.210856974358625,-8.461520469891195,7.975033226792597,-16.373616433023894,10.628951958907038,-6.84337406703334,13.965992392849127,3.8401711453665706,3.264171077967834,-10.213626086513276,-2.9376747175384574,0.8236591446790094,-11.55386235617002,-1.831673678884527,2.982847353297292,-2.558116591375993,-0.549596801786667,8.996663371119594,-13.946732262675235,-1.301191396230656,0.5001042247496934,-6.290048891858126,-5.222269297842229,0.06942295683817547,-2.2787494495739016,-5.105887098141821,17.1654462560763,-11.57738735857709,-3.991171006666066,0.3512960714332201,-6.885966315053617,-1.0977212287968245,-3.3211112039874093,-7.405797308069332,-23.309600830078125,17.705230712890625,-5.847499847412109,10.627679388672092,11.71199442266368,3.373612974243012,-4.804355813362191,4.9047303207721,-8.277379111361485,-0.17897174062929264,-5.622480035622606,-5.745800906640322
32.797880459120336,-60.87112416279412,-5.872475595032832,30.818230946554866,1.8743301276448812,-12.244372551627357,-8.621197470875526,8.01403436232127,-13.974553107865336,10.513715567596815,-6.8641033738331085,12.565290754801847,3.799743771935612,1.8379926769706683,-11.469263760308895,-2.935449956071364,0.8231692274754299,-12.675056137348655,-1.798793321529406,2.978672886718252,-4.12276815568982,-0.5979354200449043,7.85887891242469,-14.56404401731831,-1.3031957615332925,0.5003177820700084,-7.25696758480022,-5.2495640669551795,0.07034577298078684,-2.5590038979690735,-5.122413626987599,16.647440863812015,-13.98076588124996,-4.011484584355091,0.3544655287807764,-7.808095965599752,-1.0403679372227326,-3.327177588976318,-6.650191213730528,-23.309599943488827,17.705230039466038,-5.847499625000229,10.356162055157974,13.445977361891433,-1.106461736973626,-4.8935925306158286,4.918578735019503,-10.282313571289986,-0.1081313286036271,-5.627031422459047,-4.194105484361311
33.64407453228204,-61.09086059304701,-8.29350181791028,30.496038863820793,-0.3356389943423501,-13.358324616508394,-8.430460669014012,7.952982098806823,-16.895386209019033,10.392602896674987,-6.8549402098805485,11.153022469006638,3.818636161501337,0.5798923437844719,-14.566196069616044,-2.926549141117219,0.8200131458931542,-17.36701936990184,-1.7979626331613463,2.979457686205591,-4.160608278721351,-0.5572023943285721,8.751065600482118,-14.609737900494077,-1.3145693104140086,0.5030511035919869,-12.899082181040239,-5.509827517914198,0.09427898881721972,-5.245279494051433,-5.131819354403633,16.21392324175148,-15.985906733077462,-4.194170162061704,0.4044315386458468,-16.353995506868753,-1.469064591256095,-3.239428329378062,-12.404390069453317,-23.30960076264403,17.70523066167379,-5.847499830494877,9.942311870979552,13.619920773035243,-9.230266005602491,-5.181516713825453,4.994374006456857,-16.910213626140784,-0.2924350268448127,-5.601544174908423,-8.26961185495332
33.33405991517377,-60.93731889361203,-7.3309795151687185,30.982376053401083,3.354396800781932,-11.486113872469211,-8.831412184589302,8.065895933395703,-10.813502971694305,10.680964686365282,-6.829449955253397,14.61101044038114,3.844617474824029,3.30443360403046,-10.291712404380126,-2.935175973783018,0.8231227459840913,-12.815130866762994,-1.9326919162283709,2.9832256586928603,2.2236665548141885,-0.5315928260704119,9.49660726630243,-13.04964865030826,-1.3032908951645932,0.5002970504387129,-7.306813418367381,-5.256201645119818,0.07016642475602439,-2.6270834900971587,-5.140351296590223,16.793274773792536,-10.696758678733369,-4.016742187374302,0.3547444658995933,-8.041414637454865,-1.2000795778490776,-3.307512931006163,-8.758870663229649,-23.30959223362886,17.705224183301787,-5.847497690887111,10.46567318613641,10.510880030060548,-0.7211501578986035,-4.842580257962554,4.908460448717129,-9.12832080814805,-0.028230069602768203,-5.6311947557972175,-2.4442015799024945
32.084489045461325,-60.78544766379666,-3.9349009203998895,30.973191636092242,3.304079277402159,-11.51143999189086,-8.948854786701053,8.086994691781502,-9.071263751517936,11.035600975605737,-6.720484743434371,19.056807738233108,3.930220928963395,5.888274274215152,-8.668913854562028,-2.939822907887946,0.8241015830229579,-10.465109279689539,-1.9315729893875262,2.983549169019373,2.1702291434311105,-0.44433162855623703,11.499274825644335,-12.237662553103286,-1.3028322853915284,0.5002406928133498,-7.0831415840817185,-5.2413624476114915,0.06887593599291826,-2.4741151606134424,-5.122030529262438,16.88638161904858,-12.043452039708487,-3.9903991470855766,0.35124386233464766,-6.851115367000977,-1.0800801440050407,-3.324475045183393,-7.170847508756303,-23.309600830078125,17.705230712890625,-5.847499847412109,10.518940870749137,11.335226621182855,0.7870091815338724,-4.9361205923561515,4.9235850310554525,-11.23024760502409,-0.05516671611815609,-5.632709637349287,-3.0307558847026126
32.71759657152943,-60.84684819924198,-5.643137849500842,31.313334593296265,7.2952726119325835,-9.447899023068128,-8.775372922646062,8.055189027072997,-11.646478958618493,10.837623797386259,-6.786050180905965,16.558135301520352,3.84606181408648,3.476931111148198,-10.019697396239723,-2.9419231983638516,0.8244715120822024,-9.407433954508749,-1.9692848528291738,2.981626917998091,3.9568009662419557,-0.5681425944138575,8.95938469598207,-10.819403372593737,-1.301885697539456,0.5001284664824502,-6.623960747143843,-5.119090497626285,0.06479387047905268,-1.2182640997482068,-5.2990165576079615,14.57337310845924,-9.76879164976792,-4.004131091700388,0.3529442492831475,-7.472979880778946,-1.0760677600322226,-3.3249694431246866,-7.11788887075338,-23.309600830078125,17.705230712890625,-5.847499847412109,10.566246043846855,10.899626251418258,1.5228190330704776,-4.933112196692937,4.923296989557651,-11.163860232449114,-0.1042372676586577,-5.629680440890954,-4.104856310954317
32.82473853822268,-60.86452451320564,-5.938032428566821,31.21811114364524,6.163813833958175,-10.033087081905098,-8.740260920772503,8.046630558054046,-12.173989706589072,10.737004380875925,-6.813818045511672,15.307671733292418,3.846730340633838,3.0011184393526937,-10.877649420487009,-2.940983966426303,0.8243064794355177,-9.875982451938132,-1.956824090540589,2.9821469305518375,3.3665118444385387,-0.5774860374287365,8.657344794772184,-11.631165779964276,-1.3020224779267646,0.5001497753621886,-6.692482330771111,-5.200087201239723,0.06873520255858165,-2.0510113292416503,-5.249708725516046,15.196219869112003,-10.520461156472305,-4.001812223951301,0.35263129224843615,-7.3671844455500395,-1.1149661401085464,-3.3195060500139086,-7.632582039132285,-23.309600830078125,17.705230712890625,-5.847499847412109,10.571965525211608,10.874215311109248,1.6524299426244013,-4.966954354929815,4.931145504293296,-11.934845766832744,-0.11442131582500659,-5.6287727311931315,-4.328410908733334
32.96112619937692,-60.87774990609178,-6.305821581075355,31.10952242528735,4.748463895199204,-10.766841175817756,-8.766961153537059,8.053113789530624,-11.772859634727158,10.749624395628626,-6.811553566521496,15.460765229635223,3.789170248820823,3.3659031235377723,-8.387860924544048,-2.940425889456296,0.824209708907035,-10.1552528023305,-1.9516201630712142,2.982555665153158,3.1192154169904547,-0.5610862632888959,8.9924751216851,-11.845408064333792,-1.3006883228613462,0.5000003338205055,-6.046693235584539,-5.251778322628235,0.06958475385626414,-2.5813502582417924,-5.10886078301901,17.13806239034411,-11.514243519779276,-4.002717624829874,0.3528004472886462,-7.408692094767669,-1.1222394076627846,-3.3185573038301435,-7.728694741741042,-23.309597422540485,17.70522812463366,-5.847498992589392,10.444698655867024,12.84294098738242,0.22938126953925933,-4.847945571888901,4.907790505073363,-9.24285480271742,-0.21805689653042615,-5.613242783317355,-6.614565208963386
32.37696112648422,-60.810625911992226,-4.721709232462813,31.06761251582639,4.204419793043856,-11.048857546141786,-8.404595180810508,7.955832646508756,-17.247947325163583,10.788315873706077,-6.800415563554557,15.942993252089234,3.8881677758402495,2.5378733352712115,-13.037013504314155,-2.938565407523484,0.8238655111406485,-11.097340950785785,-1.9497571406279661,2.982803120114971,3.0305610777712806,-0.5638405395977997,8.607661007073247,-14.60423255619177,-1.2974917030296471,0.4997080402762606,-4.503997616909833,-5.356689567758606,0.0752508110576634,-3.660156185000514,-5.028816389522056,18.252153892145923,-11.70611579923636,-3.98731741398253,0.35089956424405216,-6.712748691531925,-1.0963879914997656,-3.3221509684665103,-7.386672454421181,-23.309599125667955,17.705229418274993,-5.847499419839861,10.55205231960252,13.916721037414039,3.2438294308593614,-4.8257369547877484,4.9041371641672935,-8.743154735154956,-0.08826593604775848,-5.630030267039989,-3.755937787552321
32.36713572286885,-60.80944518333426,-4.695027131874477,31.08801310220519,4.429007693559168,-10.932929346219419,-8.34167628783308,7.938211323060322,-18.20171796520576,10.817583828008953,-6.792130993272556,16.30736176538538,3.9035026720981976,2.3484468173009967,-13.863459195824802,-2.938206520875588,0.8237942592582931,-11.277552632100688,-1.9527064882907286,2.982672780098418,3.170386030578996,-0.5662159016366897,8.519170421426328,-14.917209842591053,-1.2970235412799476,0.49966404069294484,-4.275958413018846,-5.382200747118287,0.07667293849414084,-3.9225444666526625,-5.006317100981926,18.539244588090817,-11.950756859262128,-3.9833399857838523,0.35038791808114106,-6.532932583795954,-1.0878533850074867,-3.323470403031952,-7.273508118020521,-23.309600830078125,17.705230712890625,-5.847499847412109,10.551411639792635,14.092194995249638,3.3502712999777735,-4.812632175994741,4.902159487541054,-8.44891017033036,-0.12508079460722205,-5.627993301861778,-4.561860930167251
32.729167634564604,-60.85040943374811,-5.675969240202418,30.949170450855927,2.9940920152846706,-11.672076580208563,-8.986533368335582,8.093185838841801,-8.513632448815518,11.145528319588923,-6.681171997254921,20.455618994348445,4.017085913204651,5.960494351846659,-11.333934813460996,-2.937945573242227,0.8237419030257899,-11.408157936379588,-1.9530096554647016,2.9825139054128016,3.185345105596769,-0.4790118589719426,10.484104676515567,-14.466705161976595,-1.3035910836919558,0.5003469695018171,-7.4563452823212275,-5.480209720201931,0.08482774916408728,-4.932888154335565,-5.000754559796458,18.43353889544146,-13.476122123066435,-3.979805538066214,0.35002937465826717,-6.375121865731812,-1.0510484169369394,-3.327951697001924,-6.788062035615842,-23.309600830078125,17.705230712890625,-5.847499847412109,10.489171641661988,12.30865799397318,0.7790442138166263,-4.793535851421117,4.899519610292711,-8.022074952357482,-0.09712056260233902,-5.6300835865832415,-3.949271949881968
32.28479785886346,-60.80251028756932,-4.473607952911912,31.182474575050726,5.59786956684597,-10.327627213096337,-8.658720761373472,8.028255532187561,-13.393629014319439,10.652606141397152,-6.834504238898231,14.267690170849423,3.7770513460078825,2.6224464343044813,-9.29383693827238,-2.934007417641701,0.8228515524106633,-13.41239819313985,-1.8942562349939789,2.984263593543831,0.4046829606779546,-0.5338405777578876,9.079257820585525,-16.21894321622387,-1.3016285310052917,0.5000998357261919,-6.498496413448909,-5.369695957400885,0.07612125683734546,-3.794175018035966,-5.117681413814828,16.82671604391951,-13.096884020786144,-4.000328539862136,0.35247426967590656,-7.301007716640302,-1.2921375224990934,-3.292276953506062,-9.981819308081175,-23.309600830078125,17.705230712890625,-5.847499847412109,10.551933231583169,11.526380274066117,1.611898384260018,-4.823863175665995,4.904841093043972,-8.705354757962683,-0.10225897839006026,-5.629764181707032,-4.061901760677229
32.65933657195994,-60.84106476531904,-5.485916428423594,31.062803308513686,4.2004315540348545,-11.05013439288761,-8.439967164890051,7.968844750390342,-16.70057835474799,10.403600084616272,-6.8937047872069215,11.200955727083372,3.919487378804446,3.5257047454362804,-12.306829776481383,-2.938064197622334,0.8237534925381439,-11.346942235420874,-1.907136078538803,2.984279401610531,1.0136353627402785,-0.5654572049038094,8.504373264945125,-15.182361869295198,-1.3004554954079848,0.499987769099536,-5.9434580233044105,-5.377014158635426,0.0772240433529604,-3.8701190836161006,-5.105729102284312,17.08354114324501,-12.418682971326863,-3.997689708466626,0.352228068994744,-7.183467862451536,-1.133159104959913,-3.316971066631903,-7.8734811334866945,-23.309600830078125,17.705230712890625,-5.847499847412109,10.698573389049304,12.1437325124984,5.049605336569021,-4.977397256840038,4.93289493544783,-12.169296721673495,-0.1717643810931108,-5.623816329503684,-5.585946529616582
32.51964928906139,-60.873366831204066,-5.1408431795860405,31.13043887228759,5.081403741145247,-10.593436055851033,-8.79121232502907,8.054850509528022,-11.420681988191108,10.719345698012528,-6.812306387167839,15.10941029569607,3.9724498838186433,3.610966571831901,-13.939513426070416,-2.930292052371898,0.821545490473002,-15.371482108806527,-1.8551941240939254,2.9827920623563515,-1.44516459610034,-0.5173255233382177,9.180756017195003,-18.495479313712632,-1.309557133927632,0.501785487862883,-10.41283957230117,-5.471282346854935,0.08684633151520936,-4.84430246611593,-5.15000441435121,16.0648534929388,-15.443593359486346,-4.076938208069768,0.36859462592462655,-10.829636770462233,-1.4702547127634473,-3.24737539365326,-12.391463516810926,-23.30959870294513,17.705229097189935,-5.847499313794398,10.46412171690056,9.458272286787935,-1.2191616061679529,-5.0577388359182205,4.960197213653679,-14.05305181835514,-0.15007131744125132,-5.623189525124465,-5.115275893028329
34.069905274637065,-61.18099384695446,-9.494801556290176,31.09552798620815,4.58189342687059,-10.852912867386824,-8.642584544791172,8.018334816091532,-13.65856697521854,10.481910883289135,-6.870229212590156,12.176869535139522,4.027301484913507,4.43517261736626,-14.347518078956318,-2.9292499931892224,0.8211705881742419,-15.91889694513345,-1.8737964195903505,2.98358498623721,-0.5638249898442715,-0.4545433759407779,10.334263278380488,-20.49436374605169,-1.3175395470714657,0.5046140357056998,-14.577137375472159,-5.6131973500068835,0.10999952855868891,-6.327538291947171,-5.023224115069068,17.5537441120875,-18.026039935003297,-4.118085506278635,0.392178140438168,-13.038506058190555,-1.3802373859764296,-3.2686196108161014,-11.181834808044439,-23.309597765838554,17.705228385392044,-5.8474990787099195,10.295827614058343,11.175696738225945,-3.9573178971255403,-4.986783532509689,4.959869834379036,-12.611431764586225,-0.1441330528690699,-5.621454397024754,-4.990854910326094
32.86920780384049,-60.87224867976009,-6.0606549411534,31.086264119360067,4.486394880348723,-10.902112017953858,-8.651342428419724,8.025085347868707,-13.509019033179547,10.4888887875036,-6.876036642764687,12.243784650599718,3.8556582144191927,2.6722174346508907,-11.762949355031362,-2.9343806529807535,0.8229464222587317,-13.219103798551737,-1.8482860800577048,2.983649830850079,-1.7710353975447284,-0.5030141325672426,9.481117439786669,-18.60743326599611,-1.3063622195183666,0.5010884756198642,-8.838866088155514,-5.416301475639041,0.08258073305169256,-4.277577712647651,-5.086175732446952,17.024741808762975,-15.126131211333103,-4.021714362648106,0.35708106065575485,-8.285002975051778,-1.3434053305729574,-3.281938133077933,-10.667437955026264,-23.309600830078125,17.705230712890625,-5.847499847412109,10.478776214909832,10.820420469030763,-0.30430347126550145,-4.869928174455493,4.911557102431109,-9.737997420481355,-0.1905957629464265,-5.621351164281238,-6.001071087674293
34.210994970941904,-61.22989027969521,-9.910504218579394,31.073543418005535,4.32541004653804,-10.985508869524388,-8.705726915520032,8.030887246849563,-12.718264800725981,10.565716544368573,-6.849514806655262,13.211266668563042,4.135821874709321,4.930945846538619,-17.158693794950928,-2.926182645212628,0.8193900526046827,-17.691652718578528,-1.863635004503535,2.9826723156158357,-1.0467311044800105,-0.43439261129696705,10.462192682596193,-23.29876057907745,-1.321546146178784,0.5059503947668297,-16.635036501469852,-5.672756738638862,0.11600586386512815,-6.943312840416534,-5.045061640228021,17.17201665476484,-18.672392392313334,-4.140530394168259,0.3970830373514306,-14.084248906755516,-1.3911844645972102,-3.266271948095632,-11.328614757633918,-23.30959818471625,17.70522870355834,-5.847499183790518,10.310753015145718,10.253257463248412,-4.155464414442873,-5.013404944878819,4.964473653531635,-13.208277572614765,-0.13508582312982786,-5.622038658504861,-4.7923493724574255
