40.64225,-63.75551,-29.777092,30.56934,0.15819454,-13.005217,-6.8671746,7.1276913,-42.802704,6.8339767,-5.992113,-34.8829,4.6702085,0.77248585,-47.298218,-2.8567388,0.72258466,-78.39603,-1.2269728,2.6853025,-37.96786,-0.49524558,7.030067,-45.542233,-1.3543746,0.53285486,-38.586426,-6.7417707,0.7782558,-19.168806,-5.044591,13.029112,-57.967026,-5.006236,1.4566053,-85.87099,-3.483637,-1.8958733,-45.18036,-23.309574,17.719475,-5.8470955,8.196841,-0.28521633,-60.060448,-7.0438156,7.3474417,-88.389435,-1.7158867,-4.92234,-42.693684
38.728943,-63.152885,-23.928291,30.476316,-0.5454292,-13.406737,-7.5340567,7.442051,-32.591938,7.06637,-5.803963,-32.413445,4.669525,3.7756648,-40.446373,-2.881541,0.71717185,-74.23631,-1.1764045,2.5869632,-42.399452,-0.3431803,10.586069,-41.839516,-1.3238305,0.53291583,-24.419582,-6.4194894,0.7740323,-17.074423,-4.789912,17.246773,-58.530678,-4.8556476,1.6170344,-87.07694,-3.6936073,-1.7228699,-49.15862,-23.30959,17.712404,-5.8472157,8.357189,4.5081835,-58.38258,-6.823267,7.5266066,-88.390945,-1.6405151,-4.9122376,-41.046955
38.7975,-63.325638,-24.49746,30.790016,0.5044267,-12.880776,-7.602006,7.462582,-31.444183,7.5507517,-6.0059805,-26.256691,4.594275,3.031878,-39.938644,-2.8679643,0.705879,-83.47824,-1.099136,2.5564866,-46.069202,-0.4215709,8.852255,-35.36147,-1.3196914,0.51848686,-15.471564,-6.1050067,0.55195695,-12.412317,-4.833807,16.10973,-55.061813,-4.9165893,1.6228199,-89.29043,-3.8283048,-1.6114137,-51.842625,-23.309584,17.710821,-5.847226,8.343496,3.5416985,-56.74006,-6.8771324,7.5509014,-89.91729,-1.7671438,-4.8279305,-45.23114
37.358307,-62.545723,-19.556671,30.811514,1.3141164,-12.470305,-7.6237082,7.519049,-30.423103,8.0498905,-6.203701,-19.353317,4.53891,0.119078636,-42.568863,-2.879794,0.7324938,-72.4568,-1.2549056,2.698574,-35.246204,-0.5543438,7.029947,-29.890991,-1.3111439,0.4966297,-3.6779795,-5.2321377,-0.15091428,-0.96214104,-5.04842,14.390133,-43.896492,-4.820579,1.3777978,-76.188286,-3.3101296,-2.082325,-42.39601,-23.309582,17.710056,-5.8473063,8.976758,3.8432322,-37.94291,-6.3487606,6.7608438,-67.2075,-1.231732,-5.1549673,-31.195778
40.59168,-64.13613,-29.977043,30.934664,2.629502,-11.748322,-7.6508856,7.544637,-29.80985,8.08364,-6.494222,-18.55701,4.5768733,0.7665514,-43.20296,-2.8525162,0.72030956,-79.3749,-1.1897135,2.6631417,-39.93314,-0.5261649,6.490465,-42.14647,-1.3755215,0.55481213,-51.232613,-7.198848,0.9336914,-24.763067,-5.0984273,12.5689335,-51.327324,-5.0224757,1.398492,-82.31238,-3.306953,-2.052031,-42.077858,-23.30958,17.716417,-5.847178,8.344223,0.5004444,-52.81483,-6.9173217,7.116505,-81.774635,-1.5550771,-4.9887424,-39.34171
36.461178,-62.097073,-17.028473,30.711128,2.2106621,-11.969623,-7.7170987,7.4621654,-28.892288,8.19284,-6.180129,-17.76472,4.755995,1.4776269,-50.261597,-2.882599,0.7350679,-70.2337,-1.26927,2.6524737,-38.13466,-0.4236193,8.863598,-42.65519,-1.314449,0.51099616,-15.279102,-6.0750594,0.6781526,-13.273145,-4.932737,15.842482,-53.277397,-4.669482,1.2764013,-69.850044,-3.3234863,-1.8501738,-44.64007,-23.309587,17.711143,-5.8471894,8.527047,4.4256754,-53.735783,-6.607697,7.2358255,-81.32965,-1.5766941,-4.885904,-40.90857
38.016453,-62.520752,-21.57127,30.760254,1.2339437,-12.465237,-6.98107,7.169913,-41.106304,7.3507004,-5.9950266,-28.210606,4.6503186,1.2251965,-44.217537,-2.8743935,0.72223103,-76.47585,-1.2772882,2.6713436,-36.21314,-0.48444432,7.5359225,-38.03443,-1.3239133,0.5107683,-16.756191,-5.831248,0.34815174,-8.854379,-5.001984,13.726575,-53.629814,-4.8492093,1.4530648,-80.20737,-3.503122,-1.8374518,-46.413918,-23.309576,17.71671,-5.8471513,8.535203,0.7497473,-52.78925,-6.700762,7.2122345,-81.01206,-1.5490931,-4.946848,-39.954433
41.315964,-64.15332,-32.06689,30.24014,-1.8207543,-13.952519,-6.8995028,7.158124,-42.661606,6.9317703,-6.030224,-33.685387,4.739215,1.2389845,-48.152977,-2.8533065,0.71831536,-82.80205,-1.2128476,2.710152,-37.861393,-0.49625283,7.514962,-41.057728,-1.3488919,0.5181178,-26.497074,-5.9775505,0.05087395,-8.057034,-4.989791,13.634464,-59.02871,-5.0362506,1.4306865,-85.79989,-3.3958359,-2.1757164,-42.304058,-23.309572,17.7158,-5.8471303,8.03167,1.6308846,-63.635704,-6.9710455,7.093131,-82.555466,-1.5460778,-5.1261935,-37.11796
40.172657,-63.74431,-28.565845,30.603197,-0.48033524,-13.3718,-7.059877,7.2337985,-39.611305,7.656307,-6.117216,-24.363861,4.7194867,-0.65132976,-52.37874,-2.8672826,0.731766,-74.74283,-1.2572825,2.729021,-34.52746,-0.5758412,5.866952,-39.91675,-1.3228811,0.49802545,-11.339191,-5.6500483,0.10726691,-5.905825,-5.1109157,13.076093,-52.643547,-4.8493166,1.2655077,-72.464485,-3.190467,-2.1053028,-40.671417,-23.309584,17.714415,-5.8471985,8.536328,1.3073406,-52.106,-6.629037,6.8650613,-73.26006,-1.3456696,-5.1141934,-33.455627
41.123142,-64.20583,-31.550117,30.54279,-0.022440195,-13.109996,-7.147039,7.2504063,-38.75273,7.108834,-6.089905,-31.220734,4.7505627,1.8351536,-48.12946,-2.8432314,0.70697373,-89.58601,-1.1140804,2.6366599,-43.026825,-0.4708986,7.5502644,-39.87981,-1.3541373,0.52993405,-37.124504,-6.476816,0.5452242,-15.544864,-4.98468,13.842812,-54.0356,-5.031909,1.4668962,-86.79191,-3.3907876,-2.0082471,-43.27137,-23.309574,17.715014,-5.8471656,8.128765,0.9989109,-60.29098,-6.964149,7.2649617,-85.41219,-1.6621425,-4.982735,-41.123104
39.315964,-63.434418,-25.985844,30.235214,-2.8556697,-14.483501,-7.2992587,7.327768,-36.560726,6.974847,-5.976494,-33.24453,4.5442715,3.244486,-37.28586,-2.866057,0.72083575,-76.68977,-1.1749926,2.593813,-44.38986,-0.42235187,8.889214,-38.623024,-1.3491099,0.54196966,-37.08495,-7.3344145,1.3391621,-28.303904,-4.928741,15.076333,-52.123497,-4.901612,1.4512908,-80.96539,-3.9484954,-1.4445666,-54.61456,-23.309574,17.713173,-5.8472037,8.492058,3.2989912,-52.58944,-6.798966,7.312043,-83.04564,-1.8352486,-4.7271852,-47.945816
40.783108,-64.117836,-30.799675,29.739002,-6.2985573,-16.267702,-6.9424224,7.1675234,-42.607468,6.6328855,-5.7249513,-37.564156,4.499366,2.435149,-36.76432,-2.8806033,0.73145807,-66.70088,-1.2935375,2.69689,-33.539898,-0.44375134,9.035733,-32.951393,-1.3185344,0.51190007,-17.137243,-5.988961,0.39960164,-10.595044,-4.9730663,15.363368,-47.19422,-4.773458,1.3526528,-73.49477,-3.288214,-2.0373383,-41.937134,-23.309587,17.712242,-5.847244,8.771993,3.0229,-46.9979,-6.4774246,6.8529587,-70.18128,-1.2871777,-5.1222177,-31.787018
38.155357,-62.800213,-21.938246,30.362204,-0.25253153,-13.186857,-7.6159105,7.476532,-30.892506,7.577323,-6.0611267,-25.996971,4.6496353,1.1907406,-46.124832,-2.8818488,0.7272697,-74.162544,-1.2404513,2.6161299,-40.59634,-0.45874357,8.637277,-39.743958,-1.3261533,0.5210583,-22.030005,-5.9951425,0.65853405,-12.417996,-4.9746785,15.381758,-49.667435,-4.7459397,1.3443899,-73.40868,-3.1875758,-1.926189,-41.832012,-23.309584,17.708818,-5.847295,8.653554,3.7448807,-47.601257,-6.499955,7.089039,-75.45828,-1.3576695,-4.9733224,-35.002174
41.277065,-64.432556,-32.186718,29.652822,-5.3363886,-15.7114525,-7.362011,7.368225,-35.502,7.412409,-6.163835,-27.338203,4.6431074,2.1427155,-42.614864,-2.8719397,0.73255384,-70.19317,-1.3219521,2.7211988,-34.109295,-0.4315256,8.997792,-37.43988,-1.344919,0.5269736,-27.605896,-6.3558455,0.57310677,-14.728425,-4.9446177,15.148271,-51.616318,-4.832093,1.3073962,-73.63427,-3.291124,-2.0449076,-42.425724,-23.309584,17.712572,-5.8472185,8.329885,3.643314,-56.749763,-6.733032,7.072482,-78.58575,-1.5126733,-4.9870043,-38.30643
39.9796,-63.641636,-27.840813,30.495218,0.19591641,-12.936308,-7.158332,7.255026,-39.22202,6.8082333,-5.8656387,-36.325897,4.763784,-0.18436575,-54.293083,-2.8589478,0.70452625,-89.4946,-1.1105883,2.5974736,-46.868053,-0.497838,6.910834,-45.87803,-1.3322011,0.51169354,-17.327984,-5.650815,0.2315779,-6.3748846,-4.975457,13.771115,-61.672966,-4.9750476,1.5221267,-89.02961,-3.493597,-1.9052811,-45.804607,-23.309582,17.711243,-5.847239,7.9793625,0.8900986,-66.07143,-7.090218,7.6703577,-96.13255,-1.7431014,-4.92211,-43.127884
38.80729,-63.259052,-24.384573,30.335522,-0.30394244,-13.19338,-7.754542,7.5811195,-27.794144,8.367113,-6.2873816,-15.055194,4.706077,-0.12787843,-49.85136,-2.8788614,0.7284654,-70.19615,-1.2842555,2.6911478,-35.03284,-0.4979693,7.5932283,-39.27491,-1.3213056,0.5099136,-14.693599,-5.741742,0.19525325,-7.5293713,-4.949349,15.105908,-53.138496,-4.7797046,1.3340561,-73.56904,-3.1711636,-2.137717,-40.35816,-23.309574,17.715609,-5.8471637,8.676163,4.4279265,-47.735897,-6.4546123,6.797941,-69.865616,-1.2160305,-5.14454,-30.802095
35.86668,-61.964127,-15.246813,30.29052,-0.76200604,-13.463646,-7.997156,7.695539,-24.341368,9.038802,-6.684106,-5.739708,4.1189365,1.6991494,-24.030392,-2.8920264,0.76955706,-50.92012,-1.4344193,2.7585044,-26.53604,-0.51319957,8.383093,-24.057274,-1.3347727,0.52158815,-27.377514,-6.6271944,0.8435891,-19.544636,-5.1045117,14.980156,-27.293861,-4.494431,0.8047241,-41.389885,-2.5240753,-2.392172,-30.777954,-23.309587,17.709917,-5.847326,9.573576,7.0190134,-22.478655,-6.016843,6.026284,-47.709454,-1.0771992,-5.1173835,-28.62177
34.826702,-61.4954,-11.915875,30.142895,-0.68346095,-13.391402,-8.216137,7.803728,-20.909576,9.350898,-6.776596,-1.9102316,3.9759123,-0.22430062,-23.322506,-2.9045296,0.79189783,-36.01014,-1.6428846,2.9042678,-13.590086,-0.58641326,7.5760293,-20.285767,-1.3286757,0.5088346,-17.725487,-5.859877,0.25818947,-9.075589,-5.211038,14.389143,-19.61264,-4.4146137,0.63835347,-33.08803,-2.056669,-2.8614445,-22.118166,-23.30959,17.707968,-5.8473725,10.018489,7.936405,-11.214041,-5.853242,5.741066,-40.92447,-0.8286813,-5.3403616,-21.65578
32.06559,-60.860275,-4.238364,30.591028,1.4196715,-12.404974,-8.764314,8.023455,-12.50499,10.371339,-6.8166895,10.439068,3.7952538,2.3027072,-11.272732,-2.9281657,0.80920684,-19.612131,-1.7271237,2.9171796,-9.3768015,-0.56011254,8.665137,-15.957678,-1.3081768,0.50626916,-8.956141,-5.891556,0.38800675,-10.019634,-5.107228,16.33943,-16.554005,-4.1497207,0.499125,-17.997782,-1.8401916,-2.8628628,-19.209877,-23.30959,17.706701,-5.847406,10.216442,11.467344,-7.530724,-5.5176787,5.5959597,-31.893303,-0.73140866,-5.310704,-19.49381
33.374516,-60.994137,-7.5472994,30.177696,-0.10349345,-13.099567,-8.705783,8.031628,-12.829773,10.119876,-6.957728,7.8472023,3.7491055,1.065139,-11.53187,-2.9222784,0.8195373,-18.854065,-1.7694074,2.9689631,-5.7875037,-0.5680855,8.496151,-13.346022,-1.3182429,0.50040996,-13.295565,-5.7677197,0.17327909,-7.80086,-5.1839414,15.564177,-11.115061,-4.2229934,0.40242624,-16.474041,-1.589157,-3.1751206,-13.974638,-23.309597,17.706339,-5.847448,10.398559,11.16444,0.15399885,-5.390719,5.140397,-21.958225,-0.47527215,-5.510995,-12.568165
33.107906,-61.00213,-6.9204683,31.203182,5.9847946,-10.109382,-8.768173,8.057086,-11.914585,10.769568,-6.973863,15.750811,3.9087648,1.9824187,-15.76411,-2.924274,0.81798553,-17.959675,-1.8452991,2.9902852,-2.0513806,-0.58023566,7.924898,-20.468185,-1.3208522,0.50497067,-14.042301,-5.588778,0.09246591,-5.5775743,-5.165546,15.095596,-19.665989,-4.2172623,0.4292246,-17.578201,-1.4928696,-3.224947,-12.596447,-23.309593,17.706831,-5.8474326,10.125125,9.763335,-8.856076,-5.378721,5.2138863,-23.214684,-0.42283833,-5.543822,-11.3210335
33.45497,-61.16444,-7.9228077,30.953178,4.0479383,-11.106669,-8.616297,7.990406,-14.203619,10.581166,-6.883688,13.233,3.926729,3.1813724,-13.070387,-2.9289255,0.8192334,-14.934142,-1.8616543,2.9996476,-1.0050086,-0.5394154,9.053926,-18.283043,-1.314909,0.5064549,-11.684261,-5.445097,0.06256019,-3.812861,-5.1325336,16.014101,-17.257755,-4.10634,0.3942421,-12.761091,-1.2890482,-3.3119135,-9.379522,-23.309591,17.707737,-5.847433,10.177154,10.08373,-6.647756,-5.115603,5.034047,-15.489495,-0.19252355,-5.6193366,-5.679178
33.562634,-61.088455,-8.028238,31.200922,4.7744627,-10.778084,-8.404365,7.936486,-17.3331,10.397255,-6.825013,10.874885,4.014604,3.470877,-15.388958,-2.9313946,0.8199037,-13.464502,-1.868367,2.989752,-0.85125816,-0.5153132,9.290662,-20.170162,-1.3110548,0.5050373,-10.222103,-5.4794455,0.12484899,-4.8678207,-5.1398153,16.015612,-17.109552,-4.067679,0.3657236,-10.221973,-1.3214388,-3.2762432,-10.3011465,-23.309593,17.705584,-5.8474793,10.303804,9.662741,-3.8616157,-5.031159,4.9356666,-12.569237,-0.10623995,-5.6320705,-4.076231
33.28272,-61.088566,-7.374056,31.171782,4.384891,-10.991075,-8.473803,7.96625,-16.292936,10.620717,-6.8461566,13.721517,3.9731545,3.5468874,-13.83194,-2.9322858,0.81827295,-13.391327,-1.8723621,2.993075,-0.40485537,-0.5344157,9.105917,-18.613098,-1.3109226,0.5075263,-10.128581,-5.5242143,0.14352313,-5.274649,-5.143877,16.034645,-15.939788,-4.059469,0.37796068,-10.063305,-1.3472934,-3.2518196,-10.675156,-23.309591,17.706278,-5.8474665,10.389416,9.761752,-2.22471,-5.036986,4.9730473,-12.894627,-0.14218527,-5.6112556,-4.9271393
32.85445,-60.88758,-6.045564,31.112255,4.226916,-11.05765,-8.489443,7.9636426,-15.976909,10.560889,-6.8336844,12.9640255,3.9789479,3.6249042,-13.778688,-2.9353795,0.82028216,-11.8187065,-1.8678352,2.98709,-0.594633,-0.5219266,9.356178,-18.080685,-1.3033956,0.5023174,-6.628027,-5.400317,0.097173326,-3.8233821,-5.131392,16.402338,-14.856885,-3.9991505,0.33890548,-6.862758,-1.2557871,-3.2932363,-9.2433815,-23.309591,17.706146,-5.8474746,10.440886,10.45895,-0.8930125,-4.961271,4.9390516,-11.278494,-0.10173226,-5.624991,-3.8582358
33.561268,-61.136826,-8.133272,31.197044,4.7105904,-10.826813,-8.44479,7.9609723,-16.654854,10.57896,-6.8776274,13.176138,4.039408,3.61974,-15.701964,-2.932686,0.8197977,-12.673628,-1.8736857,2.9982588,-0.2300359,-0.5114865,9.35595,-20.117361,-1.3077835,0.50308067,-7.7668657,-5.3895197,0.069327235,-3.6354368,-5.135517,16.126087,-16.79934,-4.03703,0.33619377,-7.9414597,-1.2643243,-3.3069878,-9.346582,-23.309593,17.705547,-5.8474903,10.321466,9.731651,-3.4683871,-5.0148606,4.9170423,-11.802979,-0.07230494,-5.6384964,-3.280795
34.860767,-61.565372,-11.985791,30.91661,3.234438,-11.519937,-8.210277,7.846862,-20.44558,9.974277,-6.837932,5.665225,4.0195246,2.8169773,-16.78654,-2.9231005,0.8154871,-18.790648,-1.8202399,2.9929087,-2.90361,-0.52415466,8.6558695,-22.311487,-1.3236761,0.5133396,-17.979836,-5.773658,0.22848174,-7.943473,-5.173342,15.059018,-19.610783,-4.215622,0.48724908,-19.726927,-1.5364695,-3.1871018,-13.199091,-23.309593,17.707539,-5.847443,10.190228,8.224695,-6.625019,-5.282483,5.1369896,-20.329794,-0.26371837,-5.5804725,-7.605956
35.30317,-61.770466,-13.468203,30.897055,3.0966506,-11.588979,-8.316222,7.914501,-18.715143,10.216717,-6.983851,9.057273,4.0365124,2.5100307,-17.598568,-2.923389,0.8189263,-17.657322,-1.8352429,3.0101616,-1.626075,-0.5301855,8.4459305,-21.641764,-1.3216571,0.50737214,-15.207772,-5.7282095,0.20440283,-7.457149,-5.1839957,14.925542,-18.458622,-4.207037,0.4275144,-16.34241,-1.5130693,-3.1890237,-12.909227,-23.309593,17.706821,-5.8474655,10.23783,8.638095,-4.992238,-5.3085318,5.081356,-19.305855,-0.27266052,-5.562383,-8.048302
35.779186,-61.97751,-14.8609295,31.076487,4.0967746,-11.103886,-8.176019,7.8329453,-21.058949,9.875711,-6.853302,4.483098,4.141368,3.8689,-18.78724,-2.920036,0.8128225,-20.8871,-1.8037806,2.9914603,-4.0796833,-0.47150877,9.350926,-26.618328,-1.3308165,0.5219805,-23.776691,-6.1055,0.45980233,-12.253504,-5.110527,15.472048,-24.990368,-4.265733,0.56534773,-24.189863,-1.7109345,-3.0323558,-16.320879,-23.309593,17.706842,-5.847446,9.933428,8.222155,-12.9711075,-5.3708487,5.2616835,-23.758493,-0.33976704,-5.5083394,-9.924572
34.72176,-61.450996,-11.436644,30.950594,3.3862486,-11.448395,-8.193549,7.841519,-20.77489,9.892114,-6.794567,4.57944,4.034571,2.884543,-17.010494,-2.9216828,0.8132045,-20.047506,-1.8053427,2.97338,-4.321125,-0.5088501,9.051643,-21.920797,-1.3211095,0.509396,-15.996639,-5.658475,0.16127524,-6.802998,-5.1442924,15.449763,-20.268879,-4.2025824,0.4446229,-17.951092,-1.5156612,-3.2061691,-13.091284,-23.309595,17.706804,-5.847455,10.041603,8.763612,-9.881243,-5.2539983,5.076269,-18.903936,-0.25053513,-5.6012034,-7.3709245
33.976856,-61.153667,-9.128329,30.97484,4.248535,-10.998168,-8.463359,7.9720755,-16.39836,10.394403,-6.923753,11.050255,4.0315757,3.068975,-16.788021,-2.9237359,0.8165888,-18.33078,-1.8299025,2.988585,-2.6468232,-0.50169426,9.353863,-22.014595,-1.3184097,0.50575113,-12.974395,-5.4844947,0.0634958,-4.551894,-5.1055393,16.06301,-20.740332,-4.1581883,0.38662478,-14.095418,-1.376051,-3.2949443,-10.731953,-23.309595,17.705685,-5.847479,10.015162,10.225523,-10.260968,-5.181296,4.9868245,-15.881787,-0.18494801,-5.631857,-5.584421
33.79693,-61.194725,-8.787194,31.148184,4.4954176,-10.923564,-8.4381895,7.9577823,-16.776648,10.499205,-6.8811703,12.208353,4.0196137,3.3413587,-15.59707,-2.931308,0.8203443,-13.519695,-1.8675051,2.9956982,-0.6078348,-0.5177145,9.202748,-19.934753,-1.3098615,0.5027567,-8.830246,-5.41425,0.07323074,-3.9417005,-5.1441736,15.937866,-16.929815,-4.067866,0.34709436,-9.381339,-1.295637,-3.298058,-9.801028,-23.309593,17.705582,-5.847489,10.286509,9.6375675,-4.024337,-5.0389166,4.9136825,-12.208902,-0.08962482,-5.6377096,-3.6872532
34.36728,-61.319416,-10.397156,30.976725,3.614824,-11.353427,-8.325877,7.917966,-18.483147,10.27794,-6.890624,9.469563,4.068757,2.999383,-18.01835,-2.9289095,0.81969327,-14.885762,-1.8511484,2.9967515,-1.343885,-0.5046005,9.169551,-22.315851,-1.3128374,0.50273824,-10.147563,-5.459955,0.066979885,-4.3845534,-5.149283,15.698679,-18.577461,-4.1043415,0.35669884,-11.051045,-1.3522441,-3.2965856,-10.441551,-23.309595,17.70546,-5.8475013,10.2612,9.413198,-4.407978,-5.075103,4.8895473,-12.555818,-0.06344739,-5.658884,-3.0284948
33.467316,-61.112488,-7.918705,31.019243,3.7125866,-11.311819,-8.428123,7.939809,-17.010588,10.426248,-6.856946,11.33985,3.9998147,3.1699438,-15.556644,-2.9331634,0.8209713,-12.471974,-1.8708804,2.9992986,-0.17923069,-0.5302986,9.022658,-19.278244,-1.3072886,0.5022739,-7.857284,-5.410214,0.076286756,-3.7672706,-5.1531715,16.006653,-15.155209,-4.032232,0.33367312,-7.674103,-1.2495441,-3.3223891,-8.922642,-23.309591,17.706072,-5.8474784,10.486888,10.248825,0.40462017,-4.9886265,4.895027,-10.997907,-0.080346204,-5.648475,-3.2540855
34.342678,-61.23549,-10.149008,30.874897,3.1934838,-11.53239,-8.368756,7.9268084,-17.825542,10.1399355,-6.8740563,7.8167377,3.980699,2.3823202,-16.378149,-2.9262612,0.82028645,-17.273115,-1.8252622,2.9743602,-3.0887334,-0.5288227,8.803811,-20.180239,-1.3159227,0.5025901,-12.593677,-5.5529904,0.11922573,-5.6767144,-5.1680737,15.42533,-17.546892,-4.1614428,0.3943753,-14.477281,-1.4479924,-3.2423568,-12.036659,-23.309599,17.705952,-5.847484,10.230066,9.548894,-4.58811,-5.099495,4.9072165,-13.462102,-0.1439259,-5.6346207,-4.967616
33.81021,-61.09733,-8.667606,30.994656,3.7497876,-11.272809,-8.3851385,7.935836,-17.547039,10.355834,-6.8784156,10.473502,3.9885368,2.8831697,-15.47115,-2.9298334,0.8205552,-14.410957,-1.8585331,2.990823,-1.1403136,-0.52319014,9.055862,-19.562313,-1.3119289,0.5028514,-10.188846,-5.452377,0.09114415,-4.5088725,-5.161072,15.683409,-16.477528,-4.0984397,0.36263943,-11.018975,-1.3470323,-3.278861,-10.572254,-23.309595,17.705599,-5.847489,10.285483,9.449266,-3.9883695,-5.0945287,4.949546,-13.876646,-0.13557197,-5.6257577,-4.748298
34.07337,-61.463177,-9.960037,31.202093,5.136647,-10.585934,-8.480455,7.957539,-16.22832,10.53058,-6.887265,12.67022,4.158007,3.5629141,-20.687138,-2.9266038,0.81272143,-17.59545,-1.8333158,2.9919472,-2.7197795,-0.4955089,9.257047,-25.839209,-1.3146781,0.51062644,-13.126348,-5.6662035,0.19969597,-6.6791844,-5.0872784,16.260221,-23.347927,-4.0999627,0.41337767,-13.272537,-1.4128231,-3.2182322,-11.605401,-23.309587,17.707218,-5.8474326,10.118819,9.994609,-8.900606,-5.1295214,5.061998,-16.04575,-0.1796395,-5.5967603,-5.59646
33.319855,-60.996788,-7.347622,30.979574,3.6076157,-11.350611,-8.418747,7.938655,-17.050129,10.393577,-6.8437304,10.886095,4.0019813,3.351025,-15.064157,-2.933541,0.8203234,-12.737594,-1.857426,2.9861279,-1.2475896,-0.5106162,9.353564,-19.654716,-1.3062279,0.50283104,-8.346487,-5.4567275,0.11537653,-4.5321975,-5.1358614,16.191782,-16.160475,-4.0332513,0.35038954,-8.47817,-1.301286,-3.2829208,-9.869983,-23.309593,17.705997,-5.8474813,10.365817,10.126588,-2.447316,-5.020741,4.9580426,-12.67055,-0.112430595,-5.624178,-4.0873194
33.290188,-60.99452,-7.3239675,31.10713,4.643483,-10.826439,-8.338525,7.8881035,-18.42492,10.325229,-6.8117566,10.018979,4.063747,3.1129794,-18.515701,-2.928449,0.8137739,-17.090483,-1.8401521,2.9888468,-2.2437239,-0.51511526,9.062156,-24.085167,-1.3137033,0.5104796,-13.550024,-5.606647,0.16272742,-6.0102196,-5.1145535,16.041162,-21.293997,-4.097979,0.42453375,-13.801184,-1.3947203,-3.243251,-11.104386,-23.30959,17.707247,-5.8474355,10.228114,9.945265,-6.644117,-5.1178436,5.065249,-16.160814,-0.1834345,-5.616311,-5.4499564
34.14396,-61.427193,-10.0663,31.082655,4.1210985,-11.111348,-8.441747,7.9507403,-16.789753,10.514759,-6.885841,12.384576,4.0640764,3.4495707,-16.868555,-2.933496,0.8209455,-12.214996,-1.8764745,3.0065713,-0.07455063,-0.506645,9.321124,-21.493006,-1.3069059,0.5011063,-7.071636,-5.3615694,0.046678476,-3.1861277,-5.1271596,16.12544,-18.535864,-4.035748,0.32439837,-7.4310884,-1.231189,-3.3265672,-8.737803,-23.309593,17.705875,-5.847481,10.2260685,9.764763,-5.8437104,-5.0422244,4.930727,-12.347232,-0.064422086,-5.6418977,-2.9189117
34.160744,-61.411037,-10.066453,31.184223,4.569478,-10.900032,-8.397161,7.93974,-17.47153,10.517651,-6.873272,12.398746,4.08134,3.5361814,-17.292614,-2.9323559,0.81958556,-12.799822,-1.877328,3.0080473,0.032642126,-0.5051979,9.298927,-22.271221,-1.3090676,0.5028754,-7.898433,-5.402375,0.0579402,-3.6397634,-5.125666,16.029205,-19.479458,-4.058621,0.34819186,-9.010467,-1.2948507,-3.296546,-9.718279,-23.309593,17.70605,-5.8474793,10.21436,9.4527855,-6.284936,-5.0647845,4.943924,-12.945553,-0.07289667,-5.639333,-3.2003887
35.211746,-61.837658,-13.257697,30.723326,2.069831,-12.088318,-8.381547,7.905632,-17.929337,10.112599,-6.859318,7.659073,3.906124,2.864122,-13.016817,-2.9238582,0.8160065,-18.013496,-1.834405,2.9929678,-2.6012006,-0.5248079,8.751122,-22.237823,-1.3324445,0.5249,-25.619741,-6.3062916,0.615655,-15.080072,-5.1249666,15.218641,-23.891964,-4.3248887,0.64961433,-28.850039,-1.9820018,-2.81337,-21.120144,-23.309591,17.708727,-5.8473854,9.817303,8.26444,-15.995002,-5.5300303,5.523757,-30.589537,-0.6014855,-5.3594403,-16.682987
33.134422,-60.930702,-6.7677593,31.104864,4.324004,-11.00373,-8.49369,7.972747,-15.891489,10.598303,-6.856439,13.420204,3.9827104,3.4667401,-14.216214,-2.9329138,0.81967217,-12.843089,-1.8720225,2.9903882,-0.48043597,-0.5224546,9.340753,-18.453205,-1.3080182,0.50352925,-8.155807,-5.396173,0.08566939,-3.8307443,-5.139071,16.16578,-15.640793,-4.0411267,0.35227507,-8.766195,-1.2922808,-3.2855792,-9.835278,-23.309593,17.705854,-5.8474813,10.356832,9.9331045,-2.7017243,-5.005933,4.9340024,-12.014736,-0.09959874,-5.6300335,-3.9319258
33.948524,-61.1116,-9.065676,30.928198,3.392057,-11.454326,-8.323437,7.918585,-18.44424,10.327804,-6.919353,10.202983,4.0213447,2.6275969,-17.05014,-2.9288516,0.8203383,-14.644331,-1.8570498,2.9990242,-0.88528275,-0.5224654,8.893479,-20.52367,-1.3123868,0.5023155,-10.015457,-5.4424148,0.06942625,-4.2817574,-5.178826,15.429299,-16.207418,-4.102585,0.34872127,-10.524822,-1.3402601,-3.2977793,-10.312555,-23.309595,17.705416,-5.8475018,10.350737,9.202804,-2.492059,-5.133916,4.9510646,-14.561108,-0.13365188,-5.6296225,-4.6709795
34.180927,-61.2044,-9.806999,30.8802,3.1118405,-11.593998,-8.303006,7.91071,-18.802782,10.308383,-6.944676,10.028001,4.018208,2.2699873,-17.704716,-2.9279711,0.8209176,-14.801274,-1.8629141,3.0080242,-0.34975004,-0.5353151,8.591393,-20.576078,-1.3138181,0.5016875,-10.1734705,-5.42536,0.04899522,-3.9874845,-5.198613,15.1378765,-15.769974,-4.116795,0.33975706,-10.517698,-1.3248693,-3.3160486,-9.975146,-23.309593,17.705462,-5.8475018,10.395304,9.042871,-1.4415307,-5.1641665,4.9443398,-14.894727,-0.14177443,-5.6330624,-4.804604
35.294277,-61.764442,-13.300465,30.50364,1.0148685,-12.60603,-8.273697,7.894679,-19.353374,10.098731,-6.9105277,7.292776,3.9819605,2.1002355,-16.735636,-2.9233189,0.8165497,-18.470402,-1.8202336,2.9830892,-3.2422688,-0.5336983,8.5518675,-20.883951,-1.3216532,0.50849634,-16.426521,-5.6729484,0.15596968,-6.9794536,-5.192154,14.8796215,-18.580345,-4.21168,0.43394247,-17.657854,-1.5219676,-3.2079036,-13.142697,-23.309595,17.706442,-5.847472,10.09868,8.212053,-8.223,-5.281325,5.074544,-19.166092,-0.2408592,-5.588897,-7.198138
34.066044,-61.12895,-9.341725,30.947016,3.5384915,-11.374641,-8.326378,7.9165626,-18.41928,10.230101,-6.8720837,8.882357,4.0223837,2.818557,-16.740297,-2.9287567,0.8200174,-15.368906,-1.8435435,2.9858077,-1.9816815,-0.5092338,9.148506,-21.171164,-1.3128799,0.50266004,-10.844245,-5.4909096,0.09398699,-4.9416957,-5.154623,15.646699,-18.01796,-4.1198354,0.37587544,-12.345587,-1.4017434,-3.2633615,-11.316001,-23.309597,17.705532,-5.847497,10.228124,9.342463,-5.2012806,-5.1104655,4.9426446,-14.156188,-0.121698126,-5.634558,-4.428963
34.639305,-61.36024,-11.192448,30.702984,2.08834,-12.082434,-8.223524,7.8594084,-20.119305,10.077196,-6.916375,7.2043195,4.0019326,1.3681157,-19.236706,-2.9251158,0.8194922,-17.53021,-1.8378266,2.9923368,-2.1021833,-0.55837727,8.013661,-21.271143,-1.3167149,0.5016527,-12.187178,-5.520375,0.11260278,-5.3316555,-5.220791,14.647587,-17.04234,-4.1673913,0.36664394,-13.307019,-1.4181081,-3.2509165,-11.599422,-23.309595,17.70664,-5.8474674,10.333216,8.767614,-3.2395597,-5.2429643,5.0060115,-17.338709,-0.23359007,-5.599389,-6.942187
34.466267,-61.31276,-10.735218,30.877548,3.3334746,-11.474303,-8.2356825,7.879133,-19.896305,10.272791,-6.942784,9.595504,4.0745792,2.0595121,-20.316473,-2.9271724,0.8199729,-15.307921,-1.8699675,3.0217423,0.007123232,-0.523648,8.590889,-24.425125,-1.3152999,0.5014877,-10.473147,-5.4117246,0.020543441,-3.6875706,-5.1695757,15.17169,-20.509487,-4.136579,0.3437516,-11.488982,-1.3358226,-3.3229809,-9.982316,-23.309593,17.70582,-5.847485,10.194593,9.055902,-7.0344505,-5.257538,5.0091195,-17.487154,-0.17389448,-5.6316104,-5.2535334
33.730778,-61.049423,-8.45672,31.002838,3.7171402,-11.300471,-8.287428,7.893953,-19.025558,10.315832,-6.8377767,9.879187,4.0711174,3.0611951,-17.94905,-2.9318728,0.8186635,-13.914701,-1.8566844,2.9894087,-1.3886935,-0.5006061,9.317978,-22.571783,-1.3083903,0.5025082,-8.515229,-5.436868,0.09216893,-4.3828783,-5.139496,15.886675,-19.262796,-4.0672016,0.36161178,-10.058741,-1.3656069,-3.2582529,-10.903864,-23.309595,17.705948,-5.847485,10.221654,9.268822,-6.444609,-5.117642,5.0096583,-15.26447,-0.12684846,-5.6182833,-4.4904156
34.314663,-61.25307,-10.191972,30.810215,2.8128843,-11.715552,-8.352137,7.914118,-18.15597,10.180696,-6.9036927,8.4359865,3.9323103,1.8456666,-15.677725,-2.928027,0.8229358,-15.458885,-1.8552569,2.9955142,-1.1543376,-0.5536647,8.360126,-18.899727,-1.3143841,0.49990308,-11.13582,-5.4536576,0.071349874,-4.4653063,-5.2002463,15.044012,-15.913881,-4.1525273,0.3651898,-12.731384,-1.3691465,-3.282993,-10.7603655,-23.309597,17.70606,-5.847478,10.284654,9.244968,-3.8220313,-5.184327,4.973714,-15.774698,-0.2048098,-5.6141195,-6.2068186
33.992706,-61.107582,-9.148147,30.93126,3.4401908,-11.422055,-8.3071785,7.905199,-18.688942,10.256244,-6.8708606,9.216741,4.037244,2.7220125,-17.419422,-2.9293163,0.8194143,-15.226992,-1.8451366,2.9849846,-2.0024767,-0.5096445,9.11221,-21.632574,-1.3115581,0.5023975,-10.206581,-5.47505,0.10145448,-4.8527207,-5.1564345,15.617541,-18.450914,-4.107398,0.37029874,-11.711222,-1.3950495,-3.2532647,-11.337315,-23.309595,17.705784,-5.847489,10.202416,9.161415,-6.247974,-5.144307,4.99487,-15.557348,-0.15149552,-5.614815,-5.1212792
34.731277,-61.561577,-11.673901,30.937483,3.3800278,-11.471785,-8.362822,7.9367757,-17.928051,10.425639,-6.9612317,11.404153,4.0883923,3.1792011,-18.120575,-2.9277127,0.81877154,-15.435379,-1.854287,3.007947,-1.0767909,-0.5048112,9.160881,-21.984764,-1.3148472,0.5055913,-11.48094,-5.4937787,0.089086086,-4.743316,-5.158157,15.587477,-18.266428,-4.1084733,0.35840613,-11.021389,-1.3357344,-3.2889693,-10.286,-23.309593,17.705334,-5.8474975,10.207577,8.9483185,-5.73847,-5.133257,4.948116,-14.284287,-0.095492564,-5.6302657,-3.8884842
34.290398,-61.17666,-9.94219,30.900837,3.7128556,-11.250682,-8.4039545,7.9511333,-17.13791,10.272213,-6.9465127,9.59428,3.971726,2.1930902,-16.356361,-2.9257522,0.82132155,-16.763885,-1.840551,2.9883595,-2.1718953,-0.52533257,8.794097,-20.514347,-1.3166351,0.50160784,-12.81449,-5.5051136,0.08651477,-5.127374,-5.170874,15.296343,-17.943806,-4.172154,0.37656975,-14.153118,-1.4102066,-3.2727048,-11.448176,-23.309599,17.705252,-5.8474936,10.127576,9.2234745,-7.010006,-5.190562,4.962976,-15.937329,-0.186594,-5.617398,-5.9467745
33.95778,-61.13102,-9.161253,30.954906,3.5601623,-11.371322,-8.278189,7.8978667,-19.179865,10.314513,-6.8977404,10.005812,4.0576415,2.6502242,-18.489876,-2.929406,0.8189673,-14.631531,-1.8617239,3.0035608,-0.8462031,-0.5152917,8.906462,-23.013353,-1.3133394,0.50480086,-11.140559,-5.526934,0.11232257,-5.288177,-5.166865,15.435945,-18.748468,-4.1088943,0.36913285,-11.547491,-1.3932738,-3.2663577,-11.11407,-23.309593,17.705917,-5.8474846,10.291373,8.988796,-4.666296,-5.1921744,5.024824,-16.714014,-0.16683951,-5.612892,-5.394705
34.155346,-61.149773,-9.705834,30.847073,2.8853683,-11.70273,-8.221492,7.869634,-20.11201,10.1892805,-6.886685,8.469023,4.0303783,2.1029465,-18.526638,-2.929372,0.82055646,-14.6150255,-1.864694,3.0054297,-0.49066663,-0.5311912,8.617139,-21.966507,-1.3125063,0.5009977,-9.7001915,-5.424362,0.055300117,-4.094946,-5.1907754,15.137275,-17.730146,-4.118765,0.3550154,-11.224991,-1.3681183,-3.2863452,-10.685221,-23.309595,17.705914,-5.8474894,10.3178,8.859556,-4.015711,-5.2092085,5.0100126,-16.77316,-0.1713428,-5.6206026,-5.4097786
33.54751,-60.96162,-7.905077,31.006615,3.7014472,-11.313028,-8.244755,7.876602,-19.67953,10.297714,-6.812834,9.600223,4.088981,3.2318344,-18.193739,-2.933614,0.81853366,-12.948294,-1.863446,2.9928887,-1.0028971,-0.4898479,9.506222,-23.323685,-1.3063704,0.5023071,-7.567649,-5.4149756,0.08268342,-4.1263356,-5.129032,16.036982,-19.869736,-4.0467076,0.35952538,-9.321718,-1.360161,-3.2607698,-10.776385,-23.309595,17.705912,-5.8474884,10.2231865,9.271074,-6.827121,-5.118934,5.031402,-15.638441,-0.11590249,-5.620866,-4.175176
35.036194,-61.572777,-12.460165,30.847385,2.9948075,-11.642807,-8.321354,7.9177184,-18.615171,10.238807,-6.9758563,9.193891,4.022308,2.015859,-18.318605,-2.925735,0.8222641,-15.676993,-1.8622268,3.0148993,-0.39778113,-0.5393167,8.399482,-21.19936,-1.3178024,0.50110173,-11.67208,-5.440935,0.035688374,-4.062597,-5.204888,14.874019,-16.94814,-4.1613717,0.34170645,-12.005831,-1.324227,-3.3307285,-9.884916,-23.309595,17.705359,-5.8475,10.281571,8.802561,-3.5847158,-5.1992307,4.916069,-14.953552,-0.1355426,-5.6431785,-4.627583
34.080227,-61.217724,-9.511232,30.988455,3.7446666,-11.282051,-8.363874,7.932616,-17.793386,10.37974,-6.9071026,10.767178,4.063961,3.0459216,-17.65516,-2.9291837,0.8192052,-14.829638,-1.8485365,2.9901094,-1.674659,-0.50427574,9.221006,-21.640924,-1.3113607,0.50300777,-9.796877,-5.4560575,0.091169626,-4.5069685,-5.1502986,15.761759,-17.955763,-4.086575,0.35049853,-10.2522335,-1.3384329,-3.2830033,-10.452928,-23.309593,17.705515,-5.8474965,10.239207,9.316037,-5.0604405,-5.095236,4.943732,-13.797903,-0.10440431,-5.629186,-4.0620823
33.435917,-60.935596,-7.5852613,31.033108,3.8336918,-11.252263,-8.261804,7.8855104,-19.394913,10.346694,-6.819836,10.210221,4.0949154,3.3941193,-18.0621,-2.9338453,0.8182699,-12.719211,-1.8641335,2.9933338,-0.90946245,-0.48736477,9.579862,-23.136381,-1.3058316,0.50270534,-7.305584,-5.410894,0.08245678,-4.0517416,-5.12613,16.128332,-19.439085,-4.0342975,0.35410422,-8.705543,-1.3443485,-3.2678194,-10.53249,-23.309593,17.705807,-5.8474917,10.255792,9.367455,-6.006304,-5.096458,5.017411,-15.013726,-0.10135214,-5.624585,-3.8567488
33.63715,-61.00192,-8.144321,31.003757,3.753344,-11.282157,-8.298931,7.9032598,-18.810766,10.333974,-6.8507996,10.116245,4.06317,3.1934736,-17.332386,-2.9319694,0.8190913,-13.562218,-1.8579621,2.9914353,-1.2049593,-0.49634373,9.415497,-22.073181,-1.308271,0.50262266,-8.527727,-5.4328184,0.085466236,-4.2980275,-5.138963,15.942823,-18.514801,-4.0626493,0.35746548,-9.740508,-1.3530982,-3.2709687,-10.650607,-23.309595,17.705631,-5.847495,10.250066,9.339343,-5.548886,-5.1048365,4.993524,-14.797482,-0.11373411,-5.624686,-4.193778
33.386044,-60.964542,-7.443863,31.091028,4.2092156,-11.069055,-8.361823,7.9356065,-17.755543,10.484818,-6.879067,11.999467,4.087373,3.6399646,-17.320763,-2.9316506,0.8176945,-13.516695,-1.8538338,2.9906497,-1.2300497,-0.49106982,9.579307,-21.466177,-1.3071854,0.5037839,-8.001428,-5.423357,0.08423511,-4.0823646,-5.132839,16.170315,-17.127567,-4.0328026,0.34461945,-8.284067,-1.3066217,-3.293028,-9.926543,-23.309593,17.705309,-5.847504,10.345151,9.586332,-2.9982512,-5.0409665,4.951578,-13.003124,-0.07243404,-5.6359806,-3.2995477
34.64615,-61.46696,-11.326759,30.931992,3.4476402,-11.430424,-8.361797,7.935241,-17.922625,10.377527,-6.962849,10.835172,4.050186,2.614049,-17.988573,-2.9284332,0.8216305,-14.244259,-1.8676076,3.0126722,-0.19479918,-0.51998407,8.835676,-21.508963,-1.313474,0.5009963,-9.682031,-5.3911924,0.028174743,-3.4939663,-5.175126,15.359039,-17.36492,-4.109492,0.326953,-9.850319,-1.2796199,-3.3386688,-9.2964,-23.309593,17.70527,-5.847504,10.266098,9.096083,-4.14532,-5.1357813,4.9085503,-13.727821,-0.09212371,-5.6473413,-3.6444743
34.522675,-61.292168,-10.770203,30.800005,2.66695,-11.799739,-8.249771,7.8808365,-19.689947,10.131179,-6.922856,7.842757,3.9918902,1.9345121,-17.515036,-2.9260006,0.8205067,-16.443844,-1.8471972,2.9969306,-1.4976091,-0.54054105,8.437212,-20.591648,-1.3168926,0.5023337,-12.250095,-5.505467,0.09739336,-5.1264615,-5.205169,14.898293,-16.63859,-4.1615224,0.36429533,-12.977399,-1.4010555,-3.2684724,-11.279352,-23.309597,17.705774,-5.8474903,10.297971,8.804196,-3.6940331,-5.2194858,4.9771724,-16.483139,-0.19751559,-5.612664,-6.18225
34.020126,-61.235653,-9.4955015,30.681213,1.9772886,-12.142469,-8.327272,7.890619,-18.570011,10.254142,-6.8817573,9.340076,3.9936838,2.0875278,-17.669697,-2.9264607,0.8155269,-18.004736,-1.8246621,2.9782043,-3.0467436,-0.55291045,8.464275,-19.740047,-1.3142812,0.5051778,-11.750193,-5.5304174,0.14296089,-5.426295,-5.1889825,15.296904,-16.292059,-4.117562,0.37756783,-12.273834,-1.3904542,-3.236431,-11.307329,-23.309591,17.707285,-5.847446,10.363796,9.340786,-2.8695552,-5.157935,5.01654,-15.938104,-0.21227077,-5.5951667,-6.4344234
34.245255,-61.200844,-9.883821,30.932919,3.506002,-11.374924,-8.355822,7.9217863,-18.031433,10.209917,-6.8784122,8.688792,3.9605231,2.3567948,-15.495338,-2.9280326,0.821685,-15.750813,-1.8485087,2.985589,-1.8565404,-0.53136563,8.791588,-19.692421,-1.3144717,0.50139284,-11.591214,-5.4834986,0.09555362,-4.960424,-5.173853,15.329373,-17.489227,-4.152426,0.38229743,-13.548197,-1.4094828,-3.2531426,-11.543235,-23.309599,17.705755,-5.847483,10.160806,9.107041,-6.69014,-5.1696,4.9825253,-15.777676,-0.18849804,-5.6112957,-5.979536
33.880848,-61.13671,-8.943571,31.126944,4.96368,-10.642574,-8.446209,7.9541745,-16.522234,10.469881,-6.918578,11.993304,4.0221267,2.656304,-17.501028,-2.9268978,0.81858677,-16.332663,-1.84991,2.9935365,-2.01362,-0.5212416,8.78103,-23.126957,-1.3175769,0.5065913,-14.369914,-5.659191,0.17918265,-6.8924217,-5.1548467,15.31338,-20.830605,-4.1729965,0.4243196,-16.037045,-1.5117362,-3.1904023,-13.0921955,-23.309595,17.706787,-5.8474507,10.085553,8.692955,-9.370789,-5.2656703,5.1082487,-19.589775,-0.2605477,-5.571489,-7.7575464
33.65799,-61.025642,-8.3096,30.985136,3.5339568,-11.399561,-8.232556,7.8734903,-19.899742,10.311411,-6.842969,9.853159,4.096409,3.0194364,-18.923746,-2.9322593,0.8176857,-13.475758,-1.862142,2.9980793,-0.8471378,-0.4998614,9.261077,-23.464268,-1.3084623,0.5037517,-8.51505,-5.4603686,0.09566422,-4.595232,-5.147072,15.798044,-19.272186,-4.0577416,0.3581871,-9.481566,-1.3687459,-3.2616143,-10.838797,-23.309593,17.705832,-5.8474894,10.295764,9.113764,-5.217763,-5.1528406,5.0406446,-16.307337,-0.13726322,-5.6144285,-4.701881
34.562717,-61.38374,-10.982742,30.713905,2.177796,-12.03835,-8.242598,7.87389,-19.749924,10.15354,-6.8594956,7.9186573,4.0224295,2.342347,-17.709719,-2.9290397,0.81968427,-15.270412,-1.850471,2.9914925,-1.813067,-0.513375,8.95795,-22.313927,-1.313322,0.50246096,-11.159066,-5.516178,0.12121677,-5.3566737,-5.158245,15.435954,-19.906164,-4.1350155,0.38427868,-13.13628,-1.4410813,-3.2227376,-12.070014,-23.309597,17.706224,-5.8474755,10.099716,8.901647,-8.859369,-5.2087636,5.043317,-17.382149,-0.18765691,-5.598377,-5.9314904
33.222233,-60.87854,-6.9933653,31.07758,4.002628,-11.179607,-8.249668,7.880396,-19.573435,10.395784,-6.8038225,10.778002,4.122513,3.665361,-18.48296,-2.9352484,0.8173675,-11.993008,-1.8683392,2.9948747,-0.65137017,-0.47933692,9.747905,-23.754593,-1.303786,0.50312,-6.2701893,-5.3931623,0.07886816,-3.8168285,-5.114672,16.327381,-19.80032,-4.005685,0.34815025,-7.553326,-1.326174,-3.2716584,-10.257471,-23.309591,17.705843,-5.8474917,10.280789,9.448765,-5.8011656,-5.0761833,5.026053,-14.770436,-0.08276301,-5.6272826,-3.3967016
35.25435,-61.79525,-13.350892,31.107063,3.9576235,-11.172223,-8.191199,7.8497634,-20.707722,9.967505,-6.798903,5.4643426,4.151159,3.4772847,-20.272194,-2.9237683,0.81212544,-18.840418,-1.8201953,2.9882512,-3.814694,-0.47678176,9.020989,-29.541695,-1.3306237,0.5267333,-25.448498,-6.2774067,0.48915595,-14.237069,-5.1286607,15.1055355,-27.157665,-4.267867,0.594039,-25.27334,-1.8321048,-3.0116565,-17.993876,-23.309591,17.707922,-5.8474245,9.956174,7.353643,-13.66666,-5.452898,5.388681,-27.111511,-0.38881856,-5.5067697,-10.867611
33.859867,-61.0834,-8.761232,30.982367,3.7333598,-11.281079,-8.354849,7.930024,-17.927881,10.332514,-6.8921175,10.177145,4.0251822,3.0283484,-16.312265,-2.9295554,0.8200573,-14.552124,-1.8503343,2.989041,-1.5569041,-0.5064124,9.244577,-20.61973,-1.3114325,0.5029107,-10.154945,-5.4649053,0.09286531,-4.652173,-5.154044,15.748232,-17.103886,-4.0942955,0.36005896,-10.855148,-1.3567101,-3.2785494,-10.688037,-23.309595,17.70533,-5.847501,10.259099,9.350281,-4.514595,-5.102456,4.95323,-14.139944,-0.12123805,-5.6274896,-4.4433155
35.75075,-62.13351,-15.047113,30.91618,2.8769515,-11.702611,-8.121098,7.795856,-22.153193,9.715603,-6.79869,2.39289,4.126107,2.5917368,-21.374321,-2.901807,0.7908138,-34.938835,-1.6729509,2.93478,-11.940291,-0.5343213,8.285178,-24.626242,-1.3474556,0.5368401,-33.822765,-6.6533194,0.59335124,-18.174625,-5.1779966,14.571619,-23.819878,-4.4513273,0.7393824,-36.627396,-2.2006135,-2.8016903,-23.777279,-23.309586,17.709019,-5.847351,9.859351,6.370532,-14.071219,-5.7408175,5.6426725,-35.989483,-0.7094182,-5.3680487,-18.793625
37.29749,-62.763725,-19.797607,29.711653,-3.7618287,-14.95572,-7.982995,7.752348,-24.111216,9.702857,-6.9340615,2.4275107,4.015473,0.21075034,-22.669416,-2.9075963,0.8037584,-29.623219,-1.7533268,2.9813757,-7.34558,-0.5923884,6.872447,-24.89907,-1.3462341,0.5285845,-31.808504,-6.360206,0.45398563,-14.71369,-5.2738075,13.144076,-22.40747,-4.4417725,0.6234223,-32.27553,-1.9729062,-2.9654229,-20.013079,-23.309586,17.710815,-5.8473454,10.03932,6.0307717,-10.32905,-5.661481,5.3967676,-30.479542,-0.5423478,-5.473258,-14.196444
36.200035,-62.205536,-16.315668,30.578676,0.7664137,-12.738014,-8.072189,7.7777166,-22.994385,9.541252,-6.8024974,0.3718133,4.126406,3.0773325,-20.704817,-2.9021225,0.7904694,-35.908836,-1.6375806,2.9081466,-14.169438,-0.5033876,8.887607,-23.496323,-1.3425233,0.5315284,-31.174294,-6.561487,0.62779903,-17.538862,-5.1558905,14.889152,-22.96456,-4.4111295,0.67655724,-33.448906,-2.1483264,-2.787385,-23.484743,-23.309587,17.70824,-5.847384,9.860016,6.815727,-14.584835,-5.670555,5.5231256,-33.097385,-0.646888,-5.3748956,-17.76561
36.895416,-62.673412,-18.661285,30.325342,-0.45550847,-13.308427,-8.1814165,7.819924,-21.18168,9.5763035,-6.8567624,0.99126005,4.0445795,2.143693,-19.814056,-2.9031098,0.7953059,-33.826088,-1.6677717,2.9201443,-12.898768,-0.527829,8.308662,-25.607166,-1.3517138,0.53722346,-38.195496,-6.888712,0.74524933,-21.417171,-5.1651716,14.460051,-26.367506,-4.494064,0.7309566,-38.09984,-2.2883563,-2.7347407,-25.4096,-23.309591,17.708168,-5.8473577,9.663865,6.7646813,-19.474934,-5.851064,5.6986485,-38.91488,-0.8247486,-5.3105907,-21.546322
36.173336,-62.148914,-16.079983,30.916485,2.886173,-11.693243,-8.214041,7.879112,-20.394947,9.9911585,-6.946058,6.1324487,4.0388165,2.6914334,-17.429026,-2.9149039,0.81175554,-24.227055,-1.7726289,2.97821,-6.1779575,-0.5159096,8.327071,-24.76363,-1.3387003,0.52483845,-28.511711,-6.449151,0.58374155,-16.49031,-5.1781745,14.303915,-24.009418,-4.3876524,0.62459505,-29.81361,-2.0221174,-2.8764012,-21.23122,-23.309595,17.707869,-5.8474116,9.849783,6.6920547,-14.58958,-5.6243353,5.443852,-30.822723,-0.580575,-5.4013104,-15.941589
34.472553,-61.430775,-10.8319235,30.990108,3.4311168,-11.44418,-8.250808,7.8851957,-19.670591,10.246067,-6.88287,9.155739,4.0700912,3.6361637,-16.68648,-2.9260488,0.8141066,-17.760485,-1.820696,2.9855034,-3.1099155,-0.48516634,9.244408,-24.27187,-1.3217075,0.51745933,-18.353012,-6.0158577,0.424798,-11.349931,-5.1202545,15.582248,-22.403172,-4.1987333,0.52927256,-20.054295,-1.7567812,-2.9863925,-17.218924,-23.309593,17.707222,-5.8474526,10.068504,8.45338,-10.2293825,-5.3560624,5.30989,-24.036278,-0.37948662,-5.4667764,-11.089195
34.22453,-61.171997,-9.780214,30.656061,2.1749127,-12.016472,-8.396087,7.937985,-17.340828,10.221439,-6.8927593,8.811765,3.9365294,2.5700488,-14.359445,-2.928788,0.82215536,-14.473165,-1.8578442,2.9936504,-1.2292254,-0.51706,9.197654,-19.077507,-1.3151215,0.50294834,-11.846832,-5.4566627,0.0837724,-4.6025043,-5.1561975,15.672953,-16.876692,-4.1366076,0.37906274,-13.064042,-1.3730768,-3.2844124,-10.877341,-23.309597,17.705442,-5.847491,10.181369,9.518762,-6.0283732,-5.134969,4.95867,-14.83981,-0.14459273,-5.631776,-4.8921037
35.534576,-62.0171,-14.372236,30.979588,3.54707,-11.373799,-8.306498,7.893079,-18.971296,10.211555,-6.900604,8.737312,4.0747523,3.931843,-16.555983,-2.9234824,0.81505406,-17.48743,-1.8309008,3.0071535,-2.7064831,-0.48276865,9.046989,-28.161026,-1.3332561,0.5257059,-25.685642,-6.2002187,0.4025748,-12.947937,-5.1137967,15.215353,-27.815899,-4.2953315,0.5833409,-25.664057,-1.7931862,-3.0500667,-17.133934,-23.309591,17.707731,-5.847429,9.795757,7.7191744,-17.36322,-5.50814,5.375739,-27.745274,-0.41398346,-5.5073,-11.303211
36.55841,-62.163822,-17.060173,29.974245,-1.8274167,-13.961974,-8.105763,7.7910957,-22.113522,9.372678,-6.848481,-1.6595573,3.9507895,0.79333866,-19.489058,-2.906134,0.8044819,-30.199469,-1.7326308,2.9705982,-8.15978,-0.57011145,7.916459,-19.576199,-1.3403667,0.515893,-25.91005,-5.915671,0.2017258,-9.342976,-5.2342424,14.133256,-17.534615,-4.4174733,0.5576686,-29.331398,-1.7556942,-3.1395566,-16.290125,-23.309593,17.707832,-5.8473997,10.108889,7.444294,-7.2053237,-5.555525,5.2201786,-25.97081,-0.42725557,-5.565681,-11.175243
39.461742,-63.846264,-26.694187,30.957207,4.358868,-10.87225,-8.08453,7.7771325,-22.85043,9.403291,-6.9299645,-1.3041792,4.6134562,3.799695,-38.0251,-2.8717964,0.74656004,-64.09277,-1.4155585,2.790841,-28.561026,-0.40079898,8.340941,-54.640495,-1.398641,0.599247,-76.51126,-8.357201,1.6221606,-39.34453,-4.959298,14.049557,-60.44873,-4.9432774,1.3324335,-76.98907,-3.233603,-2.0997818,-40.673355,-23.309582,17.713196,-5.8472157,8.475443,3.8544302,-52.236332,-6.5373564,6.606439,-66.47522,-1.2972281,-5.070547,-33.37091
34.016262,-61.354343,-9.86257,32.105774,16.013151,-4.8821106,-9.516202,8.219017,-0.40921783,10.827123,-7.183316,16.77792,5.036438,3.469552,-57.095882,-2.8476968,0.71002436,-88.567505,-1.1332542,2.559746,-48.36545,-0.36135334,8.70313,-62.07812,-1.4194505,0.6264657,-96.25265,-9.3648405,2.3320882,-52.67366,-4.964621,13.505194,-64.741264,-5.18054,1.7502898,-102.62585,-4.105343,-1.4016825,-55.896843,-23.309576,17.710945,-5.8470964,7.9879284,1.1736765,-62.52041,-7.210289,7.7768717,-99.60392,-2.0518699,-4.6247206,-53.345486
38.377888,-63.452717,-23.741932,30.91854,5.0026836,-10.526636,-8.372944,7.7780123,-18.53986,10.09536,-7.2048106,7.71853,4.4911284,1.9137752,-37.985664,-2.8598397,0.73809093,-73.07697,-1.2872081,2.69685,-38.562,-0.50478643,6.365257,-47.808502,-1.4224874,0.62368095,-94.101524,-9.432837,2.3186877,-53.614895,-5.225734,10.603768,-50.260345,-5.083102,1.4458082,-86.37307,-3.7769933,-1.5916023,-51.006332,-23.309574,17.71498,-5.8470807,8.472018,-2.058896,-51.248177,-7.007208,7.103345,-83.374245,-1.8175855,-4.7142243,-47.70725
33.78706,-61.14573,-9.002998,31.41547,10.394889,-7.751665,-9.058869,8.037092,-7.3798513,9.953313,-6.848027,5.6531253,4.929298,4.5175743,-51.095562,-2.8352365,0.6848599,-105.55869,-0.9492665,2.4562929,-60.36331,-0.3470232,9.816335,-55.52677,-1.4184787,0.62552387,-96.39438,-9.681424,2.5624971,-56.994385,-4.916152,15.0530405,-59.432884,-5.2107234,1.8222178,-106.60377,-4.6110706,-1.052798,-64.88132,-23.309572,17.715328,-5.8470783,8.42099,2.3094282,-52.08297,-7.1301985,7.693657,-96.47867,-2.18934,-4.490443,-58.04712
37.41699,-62.458733,-19.78495,30.73739,3.3691335,-11.341769,-8.06836,7.666518,-23.568283,8.577243,-6.749251,-12.416335,4.7161174,2.8871586,-46.93979,-2.8387449,0.6850487,-103.49048,-0.8670896,2.367829,-66.73336,-0.38519073,8.480584,-56.1757,-1.4202207,0.63835317,-102.31011,-10.418888,3.3357122,-68.55746,-5.021076,13.57548,-58.327667,-5.1155043,1.6451724,-95.89539,-4.483892,-0.8531318,-65.007866,-23.309563,17.717812,-5.847048,8.3359995,0.41993332,-55.035114,-7.297282,7.774906,-100.17711,-2.37367,-4.291466,-63.719074
32.474186,-60.69375,-5.5395756,32.18295,16.45247,-4.6493297,-10.056302,8.361047,8.14629,11.579149,-7.3449283,26.214005,4.875248,3.7920132,-51.424076,-2.8411622,0.70280933,-93.51499,-0.9934761,2.43092,-61.188793,-0.38160008,8.499331,-54.5632,-1.4292616,0.63433576,-104.68134,-10.588868,3.247819,-69.29385,-5.077869,12.450568,-56.13993,-5.2192054,1.734282,-103.29892,-4.7884464,-0.7324798,-69.17501,-23.309566,17.721308,-5.846923,8.357424,-2.376505,-55.587563,-7.5144615,8.018625,-110.510826,-2.5600305,-4.2290206,-68.90413
33.16796,-60.7943,-7.198183,31.330492,10.0108385,-7.9384003,-9.245502,8.109089,-5.1488647,10.558663,-7.176824,13.241728,4.517918,3.2087843,-38.052322,-2.85475,0.7196525,-80.85072,-1.1045341,2.5100815,-51.843754,-0.38631848,8.863169,-48.38526,-1.4136968,0.618794,-90.25606,-10.050781,2.9875598,-62.868774,-5.0184455,13.328067,-53.490868,-5.124295,1.6054151,-93.49738,-4.6272974,-0.820282,-66.20448,-23.309576,17.717564,-5.847024,8.133364,0.86108303,-58.4251,-7.533092,8.004118,-108.574615,-2.5947413,-4.205474,-68.90445
37.182247,-62.633263,-19.675179,31.059011,6.701499,-9.611042,-8.473607,7.8291454,-16.710543,9.717963,-7.211789,3.0152998,4.686566,1.7680302,-47.17839,-2.8343563,0.6900217,-101.09709,-0.8788244,2.3949745,-62.729664,-0.40746763,7.509832,-55.355045,-1.4251589,0.62829196,-98.86314,-9.82699,2.7481124,-59.878635,-5.0182276,12.634378,-59.82788,-5.165085,1.5192268,-92.33709,-4.0989504,-1.2013798,-57.512447,-23.309572,17.71142,-5.847147,7.93493,0.68860435,-62.012386,-7.2523227,7.4396744,-93.075584,-2.126195,-4.504607,-55.896057
36.50228,-62.18256,-17.245123,31.133562,9.384933,-8.181771,-8.764118,8.021387,-11.274311,10.244417,-7.5084567,10.36267,4.7308974,0.83762383,-51.4873,-2.8296402,0.7032552,-94.68379,-1.0340328,2.5786698,-52.385963,-0.37546086,7.8919106,-61.98764,-1.4338734,0.6209568,-99.76055,-10.028753,2.557783,-60.394745,-4.913232,13.253207,-68.20479,-5.3041563,1.5201795,-96.94619,-4.35249,-1.2699949,-60.177753,-23.30958,17.713219,-5.84709,7.5406466,1.9619694,-71.32242,-7.7178535,7.762253,-106.12709,-2.4946475,-4.419548,-64.211426
37.128246,-62.594944,-19.311028,30.83527,5.39638,-10.288986,-8.353993,7.830585,-19.359644,9.256052,-6.8786283,-2.9932795,4.6222367,3.6108012,-40.779697,-2.8480592,0.70630133,-87.93966,-1.0735288,2.5375388,-53.611164,-0.33474755,9.100143,-62.085827,-1.4272451,0.6349158,-103.3941,-10.512596,3.0987463,-68.37907,-4.883698,14.196312,-70.01665,-5.199847,1.5536495,-93.68094,-4.5810432,-0.96083236,-64.90989,-23.309574,17.716686,-5.8470793,7.6399727,2.132884,-73.35589,-7.4982963,7.6816473,-100.68116,-2.4263668,-4.362619,-63.747837
36.92338,-62.56086,-18.82358,31.175278,6.062621,-9.991784,-8.210745,7.673697,-21.0047,8.821954,-6.583959,-9.241673,4.7583156,1.6955588,-48.79798,-2.8433335,0.7076018,-90.84695,-1.0600327,2.5383952,-52.64605,-0.4384364,7.4344,-54.58963,-1.4075918,0.60287595,-83.58,-9.117672,2.1822352,-50.311287,-5.0349693,12.946336,-59.895515,-5.137505,1.5669743,-93.891304,-4.144636,-1.3715016,-57.289303,-23.309566,17.715263,-5.8470874,8.208131,0.4517212,-58.349705,-7.149331,7.504833,-92.89766,-2.088142,-4.6193647,-54.122677
37.9678,-63.072617,-21.896576,30.473576,2.462254,-11.787914,-8.18397,7.8020024,-20.923368,10.330526,-7.456024,11.821738,4.463727,1.5390306,-37.388412,-2.8577917,0.7444994,-71.8387,-1.2825928,2.7270398,-36.4469,-0.45760763,7.7253575,-46.60746,-1.4099379,0.59871525,-76.275185,-8.921003,1.9862423,-47.524673,-5.052502,13.258303,-53.812813,-4.936287,1.1231565,-68.23194,-3.5834887,-1.7331687,-48.245712,-23.30958,17.711435,-5.8472075,8.183407,4.422205,-58.078865,-6.8518214,6.6671934,-73.38893,-1.800056,-4.736164,-47.362484
37.88201,-62.94011,-21.838823,31.20118,6.504594,-9.751566,-8.153639,7.6784225,-21.790688,9.033052,-6.8569818,-6.096426,4.6796794,2.3159218,-46.17045,-2.8224618,0.68241924,-110.18586,-0.81061053,2.3940666,-68.30996,-0.40816334,7.4976573,-52.81966,-1.4173437,0.6087568,-92.11552,-9.613028,2.6873531,-57.513905,-4.966745,13.061247,-59.81437,-5.2183137,1.5186039,-94.336136,-4.20646,-1.1082914,-59.70306,-23.309565,17.717636,-5.847046,8.027774,0.19659328,-60.900307,-7.212691,7.297527,-89.67625,-2.148922,-4.49565,-56.42729
34.705185,-61.527813,-12.002046,31.847383,14.884077,-5.387134,-9.433858,8.158155,-1.6235237,10.294502,-7.1710677,10.215192,5.2557607,1.38863,-71.11419,-2.8084192,0.65511733,-123.449974,-0.7102307,2.309234,-75.68259,-0.38445187,7.3391266,-72.226746,-1.4464139,0.6519767,-116.23118,-10.79204,3.216342,-71.01236,-4.9785986,12.323292,-76.06752,-5.495065,2.0130925,-124.09682,-5.184327,-0.589123,-75.0766,-23.309557,17.722103,-5.846888,7.5739536,-1.8327961,-73.71676,-7.926084,8.501017,-124.66234,-2.808035,-4.184313,-73.884895
35.252934,-61.57946,-13.11456,30.804604,4.8112836,-10.596077,-8.401082,7.849353,-17.671515,9.456033,-6.878189,-0.4974289,4.5016017,3.8882675,-36.242043,-2.8618166,0.73318195,-75.319855,-1.2074211,2.6218066,-44.707317,-0.34780145,10.028468,-49.16453,-1.3877099,0.58628905,-70.22386,-8.694599,2.0990567,-45.630398,-4.8680744,15.846848,-56.1146,-4.888741,1.2326488,-72.18227,-3.6621745,-1.594273,-49.697144,-23.30958,17.713684,-5.8471622,8.30862,6.1984296,-55.59728,-6.7454095,6.86501,-74.98076,-1.7664661,-4.7312584,-46.452175
32.651283,-60.690292,-5.4011803,31.549557,11.717997,-7.117165,-9.459388,8.162872,-1.189682,11.0126505,-7.125918,19.650951,4.6967626,3.2204947,-43.382347,-2.86421,0.72755265,-77.56479,-1.1692401,2.5456913,-48.30354,-0.42548016,8.685236,-44.32954,-1.4023403,0.60749346,-82.84876,-9.20154,2.4039826,-52.16183,-5.14009,13.137272,-44.250446,-4.9176145,1.3635658,-78.58485,-3.865655,-1.3969557,-53.77436,-23.309572,17.720032,-5.847053,8.758266,0.39301205,-45.07953,-6.8198986,7.178878,-84.0175,-1.8911675,-4.611785,-51.3911
36.01789,-62.331177,-16.079464,31.550003,9.566484,-8.2586565,-8.74816,7.8626876,-12.844664,9.69353,-6.7191343,1.89885,4.864793,2.261066,-52.965313,-2.8464787,0.70084375,-94.930756,-1.0034555,2.4595766,-58.403694,-0.46576554,6.6707883,-57.196194,-1.4092911,0.6146858,-89.62559,-9.610603,2.770949,-57.762363,-5.1184173,11.556069,-61.348732,-5.1629014,1.6800863,-98.926155,-4.4663496,-0.911566,-64.371086,-23.309566,17.72575,-5.8469586,8.166723,-2.7614899,-61.414585,-7.302356,7.896016,-103.64118,-2.3498588,-4.341855,-62.99667
37.041855,-62.761875,-19.78906,31.52851,8.062947,-8.948992,-8.403328,7.7917604,-18.118954,8.846096,-6.5369687,-8.670695,4.8320756,3.3681936,-49.107,-2.8431056,0.69217193,-95.612915,-0.9658567,2.449005,-59.03198,-0.39024198,8.245145,-57.58693,-1.4005568,0.6048586,-87.72749,-9.433164,2.4405656,-54.76983,-4.95002,13.847285,-61.228638,-5.0976253,1.5641627,-92.11808,-4.1848435,-1.2731038,-58.21753,-23.309574,17.712723,-5.847115,8.371803,1.5682235,-52.113247,-6.800775,7.1051993,-78.81427,-1.7599137,-4.728342,-46.647617
40.657364,-64.216995,-30.281948,30.976452,2.7800317,-11.694488,-7.3554835,7.3732343,-35.480923,7.1763883,-6.264511,-29.814705,4.8206673,5.007305,-43.51619,-2.8356702,0.68273795,-102.11085,-0.8447109,2.3790936,-66.5498,-0.35659507,8.541207,-59.18138,-1.41864,0.62530994,-97.72298,-10.11638,3.101234,-64.58355,-4.952322,13.324727,-66.36395,-5.176099,1.5765204,-94.115105,-4.375864,-0.9331856,-62.785492,-23.309574,17.721107,-5.8470407,7.8601723,-0.116589546,-66.69029,-7.1458335,7.3871794,-89.76452,-2.1303,-4.4745913,-56.726933
39.310986,-63.632477,-26.239195,30.650446,0.9418187,-12.631762,-7.7191467,7.5714417,-29.078588,8.46581,-6.624655,-13.397136,4.5550957,4.4874644,-34.48918,-2.862956,0.72195107,-77.015015,-1.1550277,2.5705996,-45.546467,-0.3829962,8.876395,-46.313606,-1.3947825,0.60304594,-78.98819,-9.435421,2.6850011,-55.790577,-4.9975514,13.976287,-51.497482,-4.9533796,1.4285662,-79.303635,-4.0740647,-1.1668293,-57.53525,-23.309582,17.713715,-5.8472133,8.630482,1.9593673,-46.86782,-6.7853446,7.106365,-78.46992,-1.8975426,-4.526954,-51.538162
38.84283,-63.389168,-24.463703,30.979147,3.8135426,-11.196666,-7.785067,7.6158385,-28.238537,8.483436,-6.6852274,-12.795976,4.6041775,5.0293016,-35.4554,-2.852689,0.7101478,-87.638824,-0.9962839,2.4800978,-56.272423,-0.36303908,8.783432,-52.427013,-1.4043663,0.61273474,-86.43022,-9.680402,2.9243805,-59.631588,-4.950587,13.970592,-58.64733,-4.988838,1.3703709,-78.5741,-3.9834876,-1.130274,-56.533676,-23.309576,17.718254,-5.8471656,8.191877,2.7770548,-57.608963,-6.8316784,7.0044756,-77.453384,-1.8981973,-4.5274496,-51.43717
30.724611,-60.059628,0.4111204,31.004976,5.0961523,-10.521429,-9.00873,8.051554,-8.681548,9.9283695,-6.5143533,4.2416744,3.817027,3.5182767,-10.15151,-2.9276245,0.795448,-26.865139,-1.6182199,2.7736237,-18.927492,-0.5281632,9.419118,-15.848005,-1.3045318,0.51306903,-13.568924,-5.8399086,0.5306562,-10.347837,-5.111253,16.7222,-14.422764,-4.1152024,0.5868969,-21.82139,-1.7535015,-2.8564205,-18.431091,-23.309593,17.711212,-5.847363,10.316423,10.464342,-3.5353637,-5.268829,5.57515,-28.577469,-0.57111967,-5.366377,-16.229548
30.059994,-60.119907,1.9514256,30.641644,2.560629,-11.787181,-9.268037,8.226619,-4.247261,10.44782,-6.8856764,12.200838,3.5168033,2.24784,-1.1745329,-2.9244676,0.8209037,-15.092417,-1.7171235,2.947982,-8.610775,-0.57746094,9.377084,-4.010894,-1.3132784,0.50281847,-13.67765,-6.3842363,0.44825947,-14.710559,-5.121499,17.201086,-2.2861443,-4.1720896,0.40957442,-14.695665,-1.8070132,-2.9938164,-17.64381,-23.309593,17.70815,-5.847355,10.719016,14.331344,9.71895,-5.4477305,5.265884,-24.671682,-0.8009926,-5.335829,-20.86292
30.759687,-60.391987,-0.28356743,31.057774,4.508758,-10.878465,-8.987165,8.0737505,-8.718089,10.763728,-6.724988,15.428663,3.7785356,3.5352314,-8.087624,-2.9396007,0.81749797,-12.815224,-1.822928,2.9280145,-4.4086285,-0.58250415,8.910466,-11.333714,-1.2956909,0.5022919,-5.8088818,-5.5019693,0.24534285,-5.215876,-5.1327705,16.95236,-9.145676,-3.942788,0.3805092,-7.00552,-1.2802107,-3.182159,-10.060226,-23.30959,17.709528,-5.847376,10.713679,12.291698,5.265827,-4.8921103,5.1047297,-13.067545,-0.296743,-5.522849,-8.491993
32.179905,-60.742973,-4.207566,31.05861,4.1389923,-11.081668,-8.684534,8.00976,-13.190507,10.668702,-6.816784,14.313168,3.887409,3.360576,-11.451662,-2.9368935,0.82018757,-11.634304,-1.8549777,2.9655364,-1.7060151,-0.54780316,9.102985,-15.335562,-1.301109,0.5026613,-6.812034,-5.473755,0.17838949,-4.8721056,-5.1348143,16.525248,-12.737212,-3.9817197,0.35007164,-6.774724,-1.274045,-3.2387252,-9.765217,-23.309591,17.707018,-5.8474417,10.510092,11.187357,0.82465124,-4.9352655,4.986892,-11.679862,-0.18548669,-5.5775924,-5.9243217
35.594738,-61.80787,-14.097501,29.839462,-1.505161,-13.767729,-8.616769,8.002033,-14.152449,10.274505,-6.9972606,9.610249,3.786347,1.4663789,-11.687809,-2.9206798,0.82099956,-18.606735,-1.8447005,3.0024803,-1.993624,-0.55827636,8.731792,-16.096758,-1.3301605,0.50732124,-18.282864,-5.441488,0.021217063,-3.9922264,-5.174911,15.099949,-17.30169,-4.270138,0.42387918,-19.63539,-1.3785152,-3.3248844,-10.572785,-23.309595,17.706827,-5.8474503,9.890537,9.311355,-11.956966,-5.260335,4.968664,-16.939373,-0.19550121,-5.650317,-5.662252
37.775482,-63.03343,-21.23169,28.619339,-8.924698,-17.411297,-8.269685,7.8500013,-19.69194,9.753287,-6.978072,3.299933,3.6789646,-0.014533043,-11.1199,-2.9124377,0.81333417,-24.039133,-1.7876667,2.9923618,-4.8936768,-0.5874033,8.002258,-15.878377,-1.3410408,0.5150796,-25.375734,-5.7727537,0.13957164,-7.5587935,-5.179862,14.614386,-20.392315,-4.383742,0.50928855,-26.834875,-1.5889713,-3.2140417,-13.60713,-23.309593,17.709257,-5.847385,9.612991,9.228899,-19.404308,-5.518593,5.1973634,-24.951183,-0.42864615,-5.5745,-10.470188
38.883152,-63.637512,-24.953384,28.419664,-10.85974,-18.41879,-7.973988,7.725793,-24.707829,9.296687,-6.8826833,-2.5859709,3.800762,0.12150979,-15.298002,-2.9059198,0.80076945,-31.940735,-1.7052063,2.9579763,-9.573915,-0.60337925,7.5085783,-15.68389,-1.3450942,0.52525675,-31.642487,-6.110409,0.30676895,-11.414516,-5.270476,13.728967,-16.41413,-4.445726,0.59615654,-32.050888,-1.8105665,-3.071146,-17.148941,-23.309591,17.710209,-5.8473506,9.949311,7.1194816,-11.351054,-5.5868254,5.2477303,-26.711401,-0.45290083,-5.532187,-11.4401
35.170406,-61.585625,-12.721992,29.72628,-2.19711,-14.10918,-8.549427,7.9706597,-15.17349,10.13456,-6.942679,7.8599863,3.7934937,0.8909323,-13.255062,-2.921389,0.8188396,-19.532446,-1.830545,2.9843998,-3.0704284,-0.57482684,8.439125,-14.779468,-1.3260988,0.504719,-16.847118,-5.423125,0.037801735,-4.010385,-5.2232747,14.74615,-14.120123,-4.2585244,0.4312704,-19.556843,-1.4358343,-3.2787411,-11.633817,-23.309597,17.707418,-5.8474464,10.105934,8.762877,-7.1993976,-5.2777715,5.026812,-18.436913,-0.23264539,-5.624692,-6.7166924
32.66437,-60.895554,-5.6150565,31.16385,4.3999243,-10.975073,-8.553529,7.976813,-15.150137,10.615778,-6.815764,13.682344,3.9128606,3.3854873,-12.184876,-2.936349,0.82152545,-11.399382,-1.8804276,2.989831,0.115977526,-0.5542388,8.957601,-15.920446,-1.302855,0.5014947,-6.154146,-5.3726387,0.090017825,-3.4557354,-5.1467056,16.297499,-13.158872,-3.995885,0.33612308,-6.486396,-1.2215079,-3.3019297,-8.739572,-23.309591,17.706686,-5.8474536,10.532547,10.7737465,1.1245756,-4.934698,4.925841,-10.476501,-0.12837209,-5.621457,-4.3894444
33.639656,-61.009563,-8.188422,30.587687,2.7448664,-11.683252,-8.688247,8.005488,-13.064178,10.39499,-6.9279304,11.115197,3.9305243,2.3993638,-15.892691,-2.9145336,0.8023171,-28.53861,-1.7212982,2.9016201,-10.653983,-0.5333413,8.895293,-20.206102,-1.3337965,0.52382094,-26.613066,-6.245218,0.61102045,-14.610877,-5.137664,15.465216,-20.111717,-4.314123,0.6039419,-27.69452,-1.9080036,-2.847677,-20.143019,-23.30959,17.70798,-5.8473897,9.970239,8.825751,-11.603618,-5.4746504,5.4251924,-28.614872,-0.58496565,-5.379801,-16.296867
32.841156,-60.84098,-5.922764,31.184301,4.8089886,-10.766998,-8.505569,7.983125,-15.642284,10.697307,-6.8651533,14.679884,4.0052943,3.683465,-14.725786,-2.933656,0.8185144,-12.476192,-1.8766602,2.9945562,-0.12918663,-0.51670873,9.472489,-19.20622,-1.3065013,0.5042104,-7.484451,-5.3863087,0.07852217,-3.6493316,-5.1228848,16.416939,-16.137117,-4.0151567,0.3415031,-7.5822067,-1.2652739,-3.3009722,-9.403043,-23.309591,17.705667,-5.8474817,10.382663,10.239196,-2.3633194,-4.9799576,4.9262037,-11.42447,-0.082472,-5.6355953,-3.5022628
36.056866,-62.246887,-15.930838,30.945597,2.802426,-11.7611,-8.19671,7.8621964,-20.570393,10.16503,-6.937443,8.24052,4.134547,2.9925947,-20.326935,-2.916111,0.8075012,-24.068766,-1.77277,2.9778492,-6.074156,-0.51136255,8.507275,-25.615658,-1.331198,0.52061486,-22.943077,-6.115138,0.36931762,-12.130171,-5.159734,14.787498,-23.944666,-4.284492,0.5340167,-23.248188,-1.776207,-3.0375228,-17.284294,-23.309593,17.707233,-5.8474317,9.9507065,7.3305235,-12.585819,-5.415703,5.222621,-23.385883,-0.35761952,-5.518803,-10.257373
34.19939,-61.18198,-9.762094,30.893682,3.2807024,-11.495344,-8.33666,7.9219613,-18.261494,10.257023,-6.9201164,9.338596,3.989832,2.376483,-16.443539,-2.9275713,0.82119673,-15.490937,-1.8505539,2.9940617,-1.3890543,-0.52866626,8.768926,-20.015675,-1.3144032,0.501811,-11.185447,-5.4675627,0.078247644,-4.6410046,-5.1843033,15.270196,-16.44611,-4.1365085,0.36245552,-12.19141,-1.3735119,-3.2831125,-10.857259,-23.309597,17.705458,-5.8474975,10.273398,9.099401,-3.9779556,-5.161669,4.9569173,-15.185159,-0.16112463,-5.622897,-5.3317003
33.30346,-60.969223,-7.2351646,31.136436,4.354315,-11.002989,-8.391441,7.93778,-17.46143,10.4157505,-6.825129,11.081743,4.051285,3.757606,-16.07658,-2.9323497,0.8184162,-13.45961,-1.8543074,2.985614,-1.3303432,-0.50055695,9.546649,-20.767363,-1.3081278,0.5048276,-8.745211,-5.4742637,0.10668853,-4.6324954,-5.124477,16.32005,-16.955917,-4.037475,0.36123258,-9.128681,-1.3308142,-3.2812924,-10.251255,-23.309593,17.705652,-5.847493,10.406274,10.131293,-1.419291,-4.95901,4.882662,-10.493827,-0.042622387,-5.657165,-2.5717306
33.962673,-61.12145,-9.145346,30.909327,3.2610738,-11.527107,-8.279478,7.89395,-19.212553,10.151125,-6.8726344,8.005364,4.044635,2.9297712,-17.605146,-2.9286346,0.81891364,-15.189763,-1.8442498,2.9974773,-1.4084483,-0.5089996,9.080373,-22.070621,-1.3147378,0.50668985,-12.292826,-5.633431,0.19777317,-6.605911,-5.154017,15.685805,-17.397943,-4.1181073,0.39857668,-12.933098,-1.4397486,-3.222249,-11.85724,-23.309593,17.705807,-5.8474917,10.433395,9.716176,-0.89729214,-5.144382,4.9950304,-15.559701,-0.16859733,-5.6045012,-5.613003
33.75237,-61.297523,-8.959011,30.647266,2.0844798,-12.074272,-8.581595,7.9681187,-14.803984,10.46512,-6.9047637,12.118024,3.8979187,2.435354,-13.978602,-2.9272888,0.8162567,-16.608334,-1.8417108,2.9851713,-1.974588,-0.55791384,8.421591,-18.629593,-1.3214717,0.51548713,-18.073904,-5.9261713,0.4327282,-10.391136,-5.171574,15.312717,-16.546696,-4.1831436,0.50626516,-18.913828,-1.634249,-3.021407,-15.4193735,-23.309591,17.708075,-5.8474126,10.326976,9.314436,-4.044813,-5.3136935,5.31478,-23.520527,-0.44857886,-5.4432707,-12.599268
33.511074,-61.057026,-7.890183,30.883669,3.5624669,-11.324227,-8.595495,8.003689,-14.352696,10.480474,-6.8939795,12.169321,3.8777754,2.6623456,-12.567436,-2.9304326,0.8218145,-14.755698,-1.8578796,2.9863577,-1.348068,-0.54657704,8.935704,-16.926702,-1.3120451,0.5026429,-11.092434,-5.481415,0.12599465,-4.8883543,-5.142788,15.978117,-15.730362,-4.107318,0.3797713,-12.11558,-1.3375591,-3.2665246,-10.499857,-23.309595,17.706186,-5.847457,10.251587,10.475209,-4.6261244,-5.0706162,4.9675307,-13.771625,-0.19681962,-5.6036816,-6.0940027
36.29756,-62.3555,-16.659103,30.37641,0.51606727,-12.849016,-8.223251,7.7727866,-21.034851,8.9134655,-6.674448,-7.5025454,4.1611423,4.769425,-19.495258,-2.8825636,0.756916,-56.812504,-1.3733786,2.7500854,-30.99373,-0.4069145,10.129473,-29.78631,-1.3827136,0.589047,-66.643005,-8.532539,1.8487614,-42.659973,-5.057052,15.182906,-32.06127,-4.800749,1.2502122,-68.7143,-3.4218237,-1.8873627,-44.887905,-23.309586,17.710915,-5.8472624,9.3477955,4.7873087,-27.976704,-6.5459075,6.7251472,-69.228645,-1.5966225,-4.824468,-42.50103
38.281567,-63.21377,-22.959091,30.51501,0.4967091,-12.836804,-8.070576,7.780334,-22.972498,9.411,-6.833697,-1.2795191,4.084515,2.1543114,-20.969202,-2.8894277,0.7807408,-43.91184,-1.5971086,2.9141479,-15.715017,-0.5597792,7.429001,-26.912182,-1.3690935,0.5510587,-47.364407,-7.0391016,0.67687607,-22.092466,-5.214459,13.075269,-29.523521,-4.7052155,0.9343448,-52.525,-2.5045204,-2.7091377,-27.875721,-23.309587,17.710974,-5.8473063,9.475525,3.629959,-23.693996,-6.113912,5.9105377,-46.35693,-0.88812417,-5.33696,-22.554607
33.53099,-61.001347,-7.840705,31.058178,4.984108,-10.609058,-8.6495075,8.028532,-13.4007015,10.619206,-6.9427185,13.915765,3.9385214,2.529713,-15.019362,-2.9268608,0.82012004,-16.530624,-1.849411,2.9823365,-2.0929172,-0.53937393,8.823452,-19.40781,-1.3171327,0.5039478,-13.561987,-5.5227537,0.11477564,-5.364846,-5.1578593,15.529645,-17.675068,-4.1595387,0.39389345,-14.567626,-1.4023435,-3.255246,-11.456795,-23.309597,17.705757,-5.8474717,10.150531,9.541248,-6.8803253,-5.146114,4.975841,-15.45763,-0.1991166,-5.6085653,-6.3134775
38.632652,-63.24487,-23.837606,30.981367,2.947071,-11.632719,-7.8087916,7.6161604,-27.46976,8.456183,-6.605315,-13.312619,4.5085464,5.256585,-30.758987,-2.8700306,0.7395413,-68.032684,-1.3043183,2.7032962,-35.351414,-0.36597556,9.622225,-44.062195,-1.3923837,0.5993918,-74.36548,-8.980709,2.181976,-48.249607,-4.9667363,14.738249,-49.609505,-4.9539785,1.4807173,-81.47908,-3.877252,-1.5210335,-52.50267,-23.309584,17.711805,-5.847216,8.746194,3.3577213,-44.00401,-6.782826,7.1341534,-79.12236,-1.7977335,-4.6908684,-47.702698
38.70307,-63.356445,-24.217897,30.462221,0.8718939,-12.62724,-7.885026,7.657835,-26.042469,9.031617,-6.7645926,-5.5604544,4.6248274,2.7045228,-40.70954,-2.8651476,0.7281115,-73.41249,-1.2414749,2.6523495,-38.829697,-0.43456936,8.267042,-46.738945,-1.3863745,0.58733624,-68.75657,-8.403343,1.8080982,-41.159855,-5.045625,13.957069,-49.858665,-4.839056,1.213021,-68.525665,-3.3424702,-1.8796343,-43.854065,-23.309582,17.714806,-5.847203,8.820953,3.429932,-42.766777,-6.463812,6.5504446,-64.44108,-1.409522,-4.922795,-37.418793
33.090153,-60.664375,-6.347912,31.240997,8.454052,-8.789348,-8.937632,8.092353,-9.065974,10.696927,-7.0774736,15.278272,4.3990884,2.6402783,-33.154385,-2.8950977,0.7727026,-46.820045,-1.5202366,2.779644,-22.947771,-0.4541852,9.130742,-35.37191,-1.3517295,0.5497957,-43.782814,-7.059201,1.1279459,-25.145535,-5.084034,15.1207,-33.513306,-4.490732,0.8583233,-44.112545,-2.4728394,-2.4287374,-29.769917,-23.309587,17.70916,-5.847341,9.475576,7.1023707,-23.981483,-5.8177595,5.9208922,-43.971313,-0.876739,-5.1835265,-24.43105
35.239502,-61.74931,-13.234738,30.908144,4.1904774,-10.9927845,-8.35228,7.8940964,-18.38946,10.036068,-6.9994025,6.7920737,4.155468,3.2002206,-22.458359,-2.8955896,0.7792772,-42.35231,-1.5746087,2.849449,-19.563334,-0.44766134,8.941131,-35.25602,-1.3642426,0.56193,-50.81748,-7.6041493,1.2963668,-30.920837,-5.0570908,14.876022,-35.92933,-4.5772314,0.87952113,-46.73992,-2.6913753,-2.3725278,-32.63628,-23.309587,17.709702,-5.847334,9.377719,6.617128,-26.79194,-6.03953,5.9767933,-47.19203,-1.0420151,-5.1297183,-28.041887
35.518215,-61.85176,-13.993747,30.995016,3.6974368,-11.281193,-8.249613,7.8657537,-19.78739,9.9203005,-6.8356204,4.965394,4.1132183,2.9972014,-20.173262,-2.9188635,0.8089483,-23.109245,-1.7767408,2.9527166,-6.6173706,-0.49230137,8.703235,-28.056175,-1.3330389,0.5256736,-27.797962,-6.300348,0.57890916,-15.011686,-5.1424227,14.814564,-25.99435,-4.3134074,0.60963774,-27.72242,-1.86122,-2.9394917,-18.95983,-23.309593,17.707825,-5.847422,9.923336,7.2057724,-13.523437,-5.433124,5.3487964,-26.576134,-0.42299247,-5.470465,-12.138779
34.88342,-61.63777,-12.148127,30.92581,3.4448001,-11.390313,-8.2725935,7.8431,-19.724491,9.852568,-6.79438,4.205484,4.084495,2.4686027,-20.60004,-2.9106739,0.7925297,-32.903152,-1.6594474,2.870732,-13.628441,-0.5112921,8.429697,-28.269638,-1.3370275,0.53235996,-30.842455,-6.518463,0.73050684,-17.889015,-5.1110334,14.9656315,-29.393482,-4.3816595,0.69216156,-32.99272,-2.120118,-2.7114263,-23.607594,-23.30959,17.709267,-5.8473787,9.625954,7.6465425,-21.154274,-5.6532283,5.661809,-35.255016,-0.7213062,-5.3173175,-19.563139
34.545574,-61.472008,-11.0651655,31.127863,5.6967936,-10.230358,-8.588573,8.005013,-14.406233,10.508646,-7.031441,12.833687,4.1257997,2.5442326,-22.102617,-2.9140027,0.80024654,-28.72958,-1.7194062,2.9148195,-9.696452,-0.5027036,8.5238285,-29.16755,-1.3367903,0.52968717,-29.537447,-6.3539276,0.58775914,-15.518141,-5.108926,14.994166,-28.94233,-4.3540006,0.64203763,-30.459625,-1.9509382,-2.8732529,-20.510025,-23.309593,17.707657,-5.8473983,9.671452,7.982431,-19.717293,-5.589064,5.532426,-32.538815,-0.5884067,-5.3953004,-16.240862
35.948257,-61.914093,-15.252766,30.99675,4.08183,-11.042018,-8.0345745,7.746285,-23.18131,9.511576,-6.73808,-0.13638878,4.233367,2.5355308,-26.475231,-2.9102373,0.79383576,-32.46821,-1.6750093,2.8897436,-13.41963,-0.47023398,8.621258,-36.51352,-1.3381377,0.5309554,-32.75533,-6.628003,0.8348009,-19.563236,-5.0701594,14.934654,-36.940346,-4.4008856,0.69952667,-34.742256,-2.1716044,-2.6825008,-24.52924,-23.309591,17.708904,-5.8473606,9.432614,7.1957355,-26.808239,-5.6973867,5.649874,-36.22701,-0.672843,-5.334684,-18.366245
33.657696,-61.06134,-8.311727,30.932907,3.285152,-11.50269,-8.290384,7.8741794,-19.1519,10.172429,-6.7770543,8.063117,4.0239067,2.9508317,-16.807638,-2.9329374,0.8195767,-13.698326,-1.8562329,2.983606,-1.6284394,-0.5115385,9.215854,-21.581493,-1.307694,0.50242704,-8.950375,-5.4655685,0.12477441,-4.7732005,-5.1383114,15.954455,-18.782673,-4.0635285,0.37387928,-10.465299,-1.3646448,-3.2457774,-10.929884,-23.309595,17.706491,-5.8474636,10.246155,9.63773,-6.0461273,-5.09736,5.0266614,-15.219823,-0.15581417,-5.6107173,-5.043002
34.653877,-61.644722,-11.624395,30.564983,1.6327541,-12.285192,-8.41037,7.9242115,-17.342592,10.228415,-6.906974,9.115687,4.035365,3.4820163,-16.767284,-2.918498,0.80233437,-25.654728,-1.7371099,2.9352615,-8.383831,-0.49294043,9.41557,-22.054832,-1.3250861,0.52252865,-21.979637,-6.0721755,0.47940147,-12.209484,-5.09763,16.008848,-21.864983,-4.223132,0.56715447,-23.26565,-1.7597435,-2.9642513,-17.5196,-23.309593,17.706928,-5.847425,9.990433,9.1734495,-12.236084,-5.3549237,5.34482,-25.093542,-0.43177876,-5.447896,-12.272026
33.360912,-61.002377,-7.4998827,31.145819,4.8113737,-10.744342,-8.424876,7.94322,-16.904015,10.406973,-6.859051,11.155458,4.102145,3.7424293,-18.356882,-2.9236286,0.80603653,-20.846542,-1.7852143,2.9497046,-5.733993,-0.48805553,9.64257,-23.60119,-1.3188627,0.5176587,-17.922346,-5.969453,0.39959297,-10.931572,-5.0990434,16.341385,-20.594301,-4.137656,0.46578705,-16.522783,-1.6408802,-3.0582228,-15.546,-23.309591,17.705416,-5.8474574,10.168859,9.578842,-7.5372066,-5.2378764,5.1978455,-20.45866,-0.32721037,-5.499502,-9.8412
33.299976,-61.13092,-7.604638,30.847597,4.371088,-10.886963,-8.919818,8.061259,-9.576822,10.495826,-6.855821,12.286598,4.25888,4.6084266,-23.52533,-2.9067216,0.77457315,-40.98987,-1.5640829,2.7912545,-20.518066,-0.42902607,10.302786,-27.15771,-1.3420966,0.55379283,-39.313744,-6.94814,1.1094751,-23.627197,-5.0225863,16.500322,-27.562325,-4.385547,0.9366508,-43.008015,-2.4219239,-2.431949,-28.871422,-23.309586,17.709566,-5.847332,9.830092,7.883726,-16.902658,-5.61479,5.961973,-40.50153,-0.779024,-5.216401,-21.735535
33.685513,-61.429096,-9.075819,31.251291,5.8305464,-10.205287,-8.761692,8.03137,-12.061303,10.7373,-6.9692307,15.228888,4.2739906,4.0659137,-24.615242,-2.907486,0.7859915,-34.803146,-1.6352589,2.8620837,-15.625567,-0.47539228,8.96454,-31.114391,-1.3448815,0.5485742,-37.563118,-7.1187334,1.041798,-24.861282,-5.0845156,15.234424,-31.130745,-4.408251,0.82806057,-38.696785,-2.502481,-2.453004,-29.745487,-23.309582,17.70984,-5.847327,9.669675,7.1524706,-21.086567,-5.815531,5.993163,-43.574387,-0.9232544,-5.1754317,-25.110788
32.917915,-60.789978,-6.2125735,31.485975,9.552957,-8.260622,-9.094585,8.084333,-7.178129,10.495799,-6.8510284,11.998853,4.5747447,5.0872393,-34.576233,-2.8936188,0.75501615,-53.6917,-1.4464781,2.7036612,-28.558716,-0.37973812,10.328479,-38.797104,-1.360356,0.5780406,-55.980583,-7.599921,1.5661156,-31.899416,-4.999637,15.877254,-37.99843,-4.567392,1.2136085,-60.313393,-2.8712826,-2.0843244,-36.423294,-23.30958,17.711752,-5.847256,9.436959,5.86563,-26.694628,-5.951293,6.497568,-56.26428,-1.0632253,-5.046087,-29.42547
33.575867,-61.17029,-8.410041,31.775187,12.356775,-6.786078,-9.409185,8.251689,-2.1237621,10.678204,-7.033229,14.487305,4.644174,4.428207,-39.30584,-2.8823519,0.7464384,-59.247627,-1.3785107,2.6919591,-32.795036,-0.34797972,9.982642,-47.560104,-1.3740993,0.5855621,-64.93925,-8.018735,1.6139479,-36.48481,-4.926363,15.619485,-48.76633,-4.7491727,1.2966368,-70.14996,-3.1319318,-2.0587192,-40.033726,-23.309586,17.709822,-5.847245,8.847136,5.5384235,-41.48265,-6.4095135,6.8245087,-69.92894,-1.3390151,-4.987688,-35.691097
33.92198,-61.094513,-8.930925,31.017319,4.402779,-10.9115925,-8.462955,7.9678764,-16.242804,10.39758,-6.931195,11.1768265,3.9834454,2.2886372,-17.030003,-2.9260142,0.81886804,-17.432278,-1.8385679,2.9827657,-2.4057477,-0.53209513,8.708834,-21.556133,-1.3172463,0.5052117,-14.258782,-5.6105843,0.15947795,-6.430463,-5.158397,15.404518,-19.26194,-4.170367,0.40272412,-15.131586,-1.461927,-3.2211208,-12.407903,-23.309597,17.705858,-5.8474717,10.122321,9.381863,-7.641239,-5.1941667,5.023789,-16.934233,-0.23284376,-5.588537,-7.1280684
37.122173,-62.535805,-19.164692,30.83765,2.498772,-11.860577,-8.019428,7.712426,-24.052094,9.320756,-6.81546,-2.382392,4.230746,3.3856814,-24.593742,-2.8872325,0.76513976,-52.803413,-1.4323552,2.743637,-29.591604,-0.45147166,8.627966,-37.113056,-1.3745245,0.57362795,-60.608727,-8.411881,1.9670451,-42.401432,-5.0863047,14.047883,-40.36004,-4.7077026,1.0451107,-57.146545,-3.2559545,-1.821757,-43.391094,-23.309584,17.713135,-5.8472304,9.011023,3.9176774,-37.283882,-6.4102526,6.482658,-61.984776,-1.4724493,-4.827639,-39.86934
38.210392,-63.198433,-22.752455,30.30248,-1.3250086,-13.782495,-7.7612047,7.604093,-28.256557,9.119004,-6.9069586,-4.575526,4.1981463,1.4078526,-27.270714,-2.8813276,0.76276255,-55.055264,-1.3907979,2.7285323,-32.356445,-0.5182373,6.964528,-36.891388,-1.3788422,0.5729582,-61.224667,-8.668911,2.0993118,-46.097687,-5.195552,12.375143,-39.088966,-4.7161303,0.9461438,-53.857834,-3.4106622,-1.6990128,-46.830975,-23.309584,17.715103,-5.8472075,8.96353,2.7177205,-38.511463,-6.5136037,6.488865,-64.06863,-1.6611372,-4.71836,-45.468834
33.63855,-60.904087,-7.9760942,31.016752,5.2621,-10.446324,-8.594735,8.013763,-14.082943,10.552548,-7.009011,13.209684,4.003037,2.0236733,-18.635378,-2.9235551,0.8179637,-19.00487,-1.8191179,2.9700103,-4.1903834,-0.5230736,8.640608,-24.115519,-1.3214728,0.50653625,-17.452633,-5.770159,0.26552612,-8.597982,-5.1639276,15.069543,-21.656939,-4.219159,0.42270052,-17.94126,-1.5814431,-3.1355302,-14.464146,-23.309599,17.706291,-5.847464,9.963347,8.771312,-11.551263,-5.3365927,5.1412544,-21.776144,-0.33648035,-5.5261393,-9.963555
33.4047,-61.140457,-7.8630447,31.407894,7.260165,-9.4754095,-8.742738,8.050657,-11.849854,10.749286,-6.9307847,15.478596,4.249932,3.9568644,-24.092735,-2.9191225,0.79707503,-27.37595,-1.7248675,2.9009087,-10.346933,-0.47337854,9.3903265,-29.529604,-1.3241819,0.5244509,-23.637535,-6.129331,0.531256,-13.061289,-5.0775523,16.016338,-27.03917,-4.2138405,0.5957141,-24.814835,-1.7836554,-2.9419749,-18.083843,-23.309591,17.706999,-5.8474174,9.990558,8.593093,-13.064655,-5.341441,5.399277,-26.521433,-0.40393823,-5.4511194,-11.99163
32.668476,-60.75672,-5.3970695,31.205807,5.317074,-10.495668,-8.533945,7.9984336,-15.064211,10.740783,-6.9121284,15.34031,4.0413356,3.6060643,-16.349321,-2.933074,0.8180569,-12.927217,-1.8674335,2.996233,-0.5418937,-0.5048331,9.508744,-21.092134,-1.3056085,0.50356054,-7.7103524,-5.4108634,0.074763894,-3.8295248,-5.110142,16.518118,-17.369358,-4.010844,0.3309651,-7.270775,-1.2576021,-3.3184834,-9.157562,-23.309591,17.705402,-5.8474855,10.36238,10.539499,-2.7984145,-4.9976883,4.9334006,-11.984381,-0.08777292,-5.6356807,-3.5424726
33.33526,-61.0438,-7.4460225,31.261063,5.2661257,-10.53485,-8.457274,7.9722533,-16.33659,10.630966,-6.8930635,13.869001,4.0616,3.741838,-16.451885,-2.930708,0.8160882,-14.23549,-1.8520863,2.9887629,-1.3542498,-0.5012613,9.405465,-22.17715,-1.3102463,0.50670713,-9.849723,-5.522866,0.12365347,-5.1647696,-5.1116395,16.220201,-19.387068,-4.0643783,0.37418264,-10.39725,-1.365336,-3.25684,-10.892498,-23.309591,17.705645,-5.847484,10.231666,9.782443,-6.196509,-5.1052146,5.024362,-15.197057,-0.14890185,-5.6082435,-5.1094017
31.793785,-60.501404,-2.8898296,31.335274,6.4247527,-9.93965,-8.793242,8.064833,-11.23995,11.018807,-6.875666,18.691782,3.9867892,3.828351,-14.283557,-2.9350288,0.8190975,-12.19828,-1.8744175,2.9812243,-0.78534245,-0.5246276,9.436029,-18.537586,-1.304628,0.5032522,-7.5718246,-5.392625,0.10761444,-3.75915,-5.120519,16.508194,-15.47405,-4.003322,0.35538545,-8.03647,-1.2690265,-3.2738225,-9.535242,-23.309591,17.706491,-5.8474607,10.419915,10.5239,-1.5568357,-4.954658,4.961532,-11.871038,-0.115032606,-5.6147294,-4.311294
35.2318,-61.601444,-12.989118,30.905172,3.6459384,-11.28186,-8.234195,7.8647876,-20.018848,9.925482,-6.8454976,5.2504187,4.095959,2.5048978,-20.653759,-2.9216943,0.8092615,-22.696737,-1.7744968,2.946629,-6.650275,-0.4910569,8.844304,-29.00346,-1.3287504,0.52018315,-24.78344,-6.1713133,0.5035747,-13.709309,-5.1289773,15.095288,-27.199753,-4.2807436,0.54364187,-23.813953,-1.7918862,-2.986102,-17.804129,-23.309597,17.706093,-5.847459,9.844123,8.064725,-15.756641,-5.457246,5.3089843,-26.051609,-0.40852106,-5.4792523,-11.635374
34.311596,-61.586826,-10.717794,31.1435,5.5778084,-10.313209,-8.69569,8.033287,-12.543024,10.695391,-6.955393,14.935464,4.2196875,3.360283,-23.982273,-2.9188728,0.7996155,-25.694107,-1.7480229,2.9483988,-7.541939,-0.48048887,9.198103,-28.04491,-1.3197563,0.5146914,-17.218403,-5.7876954,0.24183306,-8.029713,-5.0549574,16.086166,-28.042896,-4.2372594,0.6005821,-25.341702,-1.7288636,-3.0354843,-16.564838,-23.309591,17.706964,-5.8474336,9.867006,8.974701,-15.50533,-5.365365,5.3718553,-25.94305,-0.34858704,-5.513761,-9.930386
38.608597,-63.24979,-23.944668,30.694166,0.54242396,-12.867986,-7.6440864,7.5760107,-29.753063,9.161025,-6.7834735,-4.2042856,4.24022,2.0071092,-26.982574,-2.8927224,0.7790326,-44.91311,-1.545443,2.847212,-21.38778,-0.5075983,7.3550243,-37.170773,-1.3638668,0.5517744,-47.829628,-7.8136253,1.4968754,-34.280838,-5.1422834,13.028167,-41.512764,-4.673035,0.9410862,-51.587204,-3.057291,-2.0421712,-39.5121,-23.309587,17.713808,-5.8472276,8.972469,3.0777197,-39.365955,-6.4066253,6.364553,-59.298454,-1.3645817,-4.939066,-36.152107
33.490513,-61.08411,-7.9705954,31.091335,5.4144564,-10.389716,-8.574486,7.991095,-14.375491,10.579424,-6.965266,13.632858,4.244766,3.6960979,-24.02464,-2.9234154,0.80196697,-22.765705,-1.7650001,2.943599,-6.695015,-0.45073503,9.6329365,-30.64056,-1.3235666,0.5297147,-24.265081,-6.2260456,0.5597733,-13.8802805,-5.0556393,16.22407,-28.033169,-4.201859,0.6284205,-24.988493,-1.825882,-2.9255106,-18.411148,-23.30959,17.70755,-5.8474197,10.010728,9.290879,-12.427743,-5.321614,5.420832,-25.985222,-0.37671173,-5.4685755,-10.976965
34.7916,-61.42584,-11.652766,31.11142,5.93479,-10.081651,-8.541598,7.963527,-15.223621,9.996216,-6.8711905,5.975643,4.39241,3.273323,-30.951588,-2.9038107,0.7771078,-41.96306,-1.5594621,2.803981,-20.56441,-0.43314654,9.470637,-35.63647,-1.3403846,0.5428276,-36.708313,-6.6921287,0.8988432,-20.601557,-5.044971,15.69081,-34.823803,-4.41726,0.82531536,-40.241592,-2.256115,-2.6115649,-26.02871,-23.30959,17.70735,-5.8473763,9.522401,7.517082,-24.203266,-5.6769514,5.7910275,-39.079765,-0.65756273,-5.3226485,-18.483524
33.501373,-61.026016,-7.8130474,31.029615,4.568176,-10.85276,-8.497502,7.9616647,-15.723791,10.501589,-6.9244685,12.504173,4.1063533,3.2393649,-19.332733,-2.9237785,0.8079276,-20.829596,-1.7790862,2.9378178,-6.216811,-0.4803754,9.344827,-25.332039,-1.3213373,0.5195798,-20.303106,-6.1273837,0.58475375,-13.464099,-5.107789,15.7314205,-23.330332,-4.1983175,0.5585286,-22.14011,-1.8584933,-2.8490176,-19.637333,-23.309593,17.70691,-5.8474464,9.9672575,8.453493,-12.907103,-5.4048367,5.4705276,-28.533983,-0.50983465,-5.362451,-14.988093
34.121704,-61.114902,-9.462937,30.94586,4.077594,-11.064874,-8.41236,7.9519606,-17.004442,10.316261,-6.938211,10.150504,3.9817462,2.1536107,-16.987131,-2.926382,0.8207522,-16.657028,-1.8456534,2.9907274,-1.9714614,-0.5251321,8.798936,-21.462582,-1.3159423,0.5015043,-12.526771,-5.4966674,0.08154056,-5.023987,-5.1603556,15.38394,-19.1429,-4.166881,0.37762892,-14.1117935,-1.4114848,-3.2710667,-11.473517,-23.309599,17.705381,-5.847485,10.095501,9.327007,-8.1721,-5.201616,4.9844093,-16.491674,-0.19599068,-5.614554,-6.11131
35.419907,-61.674934,-13.464069,30.884047,2.996471,-11.623602,-8.124247,7.7917047,-21.88283,9.559806,-6.758236,0.36035156,4.0080113,2.887059,-16.535152,-2.9220004,0.8152749,-19.267757,-1.8080096,2.967349,-5.2434807,-0.49054316,8.896316,-26.410133,-1.3341663,0.52779233,-29.422,-6.594809,0.84005684,-19.216442,-5.1426945,14.849233,-25.73689,-4.355747,0.66856784,-31.418789,-2.1417117,-2.695707,-24.041597,-23.309593,17.70808,-5.8473973,9.765666,7.006792,-17.375828,-5.6502886,5.646572,-35.55071,-0.7119958,-5.2921047,-19.86898
33.442745,-61.0416,-7.687862,31.018656,4.078268,-11.088953,-8.544099,7.984112,-15.17328,10.466706,-6.875195,11.939399,3.8948753,2.6550603,-13.028666,-2.9310212,0.8221368,-14.287003,-1.8613526,2.9857118,-1.1291127,-0.5510849,8.789521,-17.080112,-1.310266,0.5011404,-9.889197,-5.4389243,0.09186794,-4.326191,-5.156026,15.82997,-15.34517,-4.095577,0.3639087,-11.037463,-1.3183577,-3.2820163,-10.185276,-23.309597,17.70617,-5.8474617,10.291706,10.232827,-3.6869442,-5.053717,4.9413304,-13.004547,-0.17651889,-5.61531,-5.5923767
33.59479,-61.065125,-8.124671,31.141714,4.5833845,-10.871874,-8.427535,7.9504123,-16.925291,10.464524,-6.8810496,11.825857,4.0378118,3.5251215,-15.871215,-2.9296088,0.81836814,-15.143192,-1.8479813,2.9864717,-1.7741859,-0.5087706,9.288651,-20.356152,-1.3129151,0.50688785,-11.651431,-5.576357,0.1774118,-6.03398,-5.148819,15.824687,-17.045647,-4.097665,0.39809245,-12.243341,-1.4130207,-3.2176297,-11.687849,-23.309593,17.70588,-5.847483,10.3080225,9.26405,-3.9026496,-5.117006,5.0196185,-15.463114,-0.17037457,-5.592708,-5.759594
34.852684,-61.40698,-11.739169,30.853462,2.9798927,-11.628379,-8.230947,7.8707075,-19.95705,10.023197,-6.870335,6.426663,4.0002155,2.2710083,-16.944433,-2.9252193,0.81885487,-17.811089,-1.8249295,2.9822986,-3.0592105,-0.5165252,8.730059,-22.629038,-1.3204694,0.50686914,-15.838045,-5.7707605,0.25338435,-8.486507,-5.166544,15.014783,-21.173288,-4.227764,0.46659896,-18.971056,-1.6474975,-3.0996022,-15.326358,-23.309599,17.706573,-5.847464,9.9879,8.271164,-11.317126,-5.3681364,5.1956334,-22.578756,-0.34453022,-5.523244,-9.892588
35.735325,-62.039886,-14.872564,30.751217,2.1940637,-12.02173,-8.240485,7.8392687,-20.184862,9.55362,-6.8043966,0.6477499,4.135941,3.985797,-19.520193,-2.904818,0.7867996,-36.726685,-1.5935868,2.8636885,-17.428045,-0.4404192,9.56699,-29.317299,-1.3497695,0.55039454,-42.606884,-7.339555,1.2122145,-28.092573,-5.0599585,15.518588,-29.894756,-4.4936743,0.8889398,-43.800583,-2.6017222,-2.3834476,-31.390213,-23.30959,17.708704,-5.847367,9.656895,7.2273026,-20.399345,-5.9156585,5.976923,-44.914745,-0.9574179,-5.1465125,-26.055801
33.912518,-61.14417,-8.979643,31.123964,4.994659,-10.6421,-8.410545,7.9475546,-17.003368,10.415043,-6.920245,11.322996,4.1415877,3.5206943,-20.019823,-2.9249458,0.8086838,-20.690676,-1.795189,2.954918,-5.240342,-0.4715289,9.541687,-25.571287,-1.3178569,0.5158104,-17.185957,-5.8373,0.38207597,-9.6061535,-5.095196,16.077007,-22.703678,-4.1519103,0.49932933,-18.499477,-1.6046238,-3.0610967,-15.148642,-23.309593,17.70609,-5.8474665,10.091152,9.037915,-9.654657,-5.2471366,5.234535,-21.810934,-0.28673008,-5.5056148,-9.058552
31.408014,-60.330196,-1.6395445,31.431345,7.958227,-9.143716,-8.975661,8.114062,-8.529186,11.07976,-6.906431,19.66061,4.0290756,4.0893154,-15.993083,-2.9208903,0.802307,-22.704329,-1.7744321,2.9322188,-7.0516653,-0.49876752,9.727013,-22.125996,-1.3255734,0.5267162,-23.363525,-6.2277975,0.5989657,-14.064786,-5.077044,16.436712,-20.997124,-4.210261,0.60754025,-24.552925,-1.8725513,-2.8565435,-19.54192,-23.309587,17.708815,-5.847383,10.113172,9.681806,-8.953748,-5.339625,5.4203696,-26.474674,-0.5233911,-5.386318,-15.090796
34.0606,-61.16399,-9.388705,31.029285,4.3750615,-10.929125,-8.467404,7.9746823,-16.22997,10.391215,-6.941534,11.097799,3.9867282,2.6135144,-16.251038,-2.924417,0.817638,-18.505531,-1.8267945,2.9801896,-3.0968559,-0.5260867,8.926909,-20.397871,-1.318778,0.5062741,-14.946788,-5.6283545,0.14965723,-6.580221,-5.157555,15.529529,-18.183128,-4.174366,0.4022305,-15.131939,-1.4546454,-3.2366486,-12.196526,-23.309597,17.705364,-5.8474784,10.141009,9.3807955,-7.013388,-5.1857758,4.9878016,-16.16021,-0.2135334,-5.6020517,-6.648008
33.166103,-60.94225,-6.860506,31.19591,4.68055,-10.838602,-8.435029,7.9548025,-16.786215,10.554903,-6.8495846,12.86982,4.011332,3.5906596,-14.868919,-2.9329102,0.8192248,-12.938849,-1.8687758,2.9901755,-0.5853183,-0.51699924,9.347648,-19.231625,-1.307396,0.5037899,-8.038412,-5.417474,0.09293028,-4.0736628,-5.1386333,16.155073,-16.010975,-4.036224,0.3504839,-8.491779,-1.299201,-3.2825186,-9.941618,-23.309593,17.705696,-5.847486,10.368677,9.828841,-2.5282872,-5.0106354,4.9384074,-12.165736,-0.0994723,-5.628172,-3.9448657
31.68269,-60.379776,-2.4655395,31.48955,7.984392,-9.138987,-8.896814,8.100833,-9.601337,11.113718,-6.9338007,19.927658,4.0807824,3.8263931,-17.834076,-2.9307046,0.81474996,-15.331583,-1.8428633,2.962184,-3.0619457,-0.5014737,9.457952,-22.847641,-1.3130311,0.5120199,-14.480775,-5.7466984,0.31571013,-8.266899,-5.121201,16.089947,-19.306404,-4.0899076,0.45152435,-14.78737,-1.5207857,-3.1079667,-13.685258,-23.309591,17.706676,-5.847448,10.237051,9.392506,-6.139686,-5.1585197,5.1971364,-19.729338,-0.2769211,-5.519147,-8.691815
34.38854,-61.42769,-10.658707,30.870031,2.9495602,-11.672207,-8.319651,7.9201035,-18.633324,10.369822,-6.997145,10.97901,4.0704026,2.8021288,-18.393377,-2.9205186,0.81130904,-20.063429,-1.8088298,2.9912124,-3.5982578,-0.50787,8.811618,-23.271545,-1.3253714,0.5186302,-19.85764,-6.140012,0.4791429,-12.868313,-5.1468754,15.301491,-20.615513,-4.2336674,0.5348926,-21.322899,-1.8625805,-2.9121184,-19.05485,-23.309591,17.706871,-5.847445,10.146314,8.536539,-7.758834,-5.4304805,5.3528376,-26.074371,-0.48569745,-5.406042,-14.014125
32.9396,-60.950314,-6.453663,31.191967,6.553569,-9.808369,-8.867958,8.044064,-10.209947,10.61442,-6.889124,13.815984,4.3628764,3.069394,-30.467997,-2.904078,0.7698581,-42.579723,-1.5402017,2.7601976,-22.887207,-0.45257512,9.172296,-35.281605,-1.3390753,0.547403,-38.450676,-7.2271347,1.3485126,-27.816216,-5.0447288,15.6518755,-34.985054,-4.421982,0.92826104,-44.611885,-2.7390275,-2.1509638,-34.996487,-23.309582,17.711737,-5.847305,9.570169,6.747921,-24.059263,-5.896063,6.263203,-50.718346,-1.0768354,-5.012566,-30.114372
33.780724,-61.18187,-8.875663,30.661507,2.2551467,-11.970077,-8.48508,7.9172416,-16.222107,10.147297,-6.9221387,8.460493,3.9554307,1.6913385,-17.333576,-2.9110382,0.79942495,-29.261932,-1.6595162,2.878143,-13.241555,-0.5370417,8.229404,-22.881775,-1.3388642,0.53103733,-31.545029,-7.1467657,1.1869566,-26.31817,-5.1633472,14.602886,-23.278759,-4.4181123,0.73075044,-34.778423,-2.6358159,-2.2717986,-32.753307,-23.30959,17.709965,-5.847338,9.755041,7.4709487,-17.251736,-5.9794,6.0612593,-47.492737,-1.2058343,-4.975437,-32.798485
34.297688,-61.7419,-10.945214,30.14242,-1.531266,-13.868137,-8.457157,7.924094,-16.644148,10.4098625,-6.9543076,11.685735,3.8490112,2.0902033,-12.666616,-2.919252,0.8060533,-22.76642,-1.7630255,2.956282,-6.4613523,-0.56398886,8.305466,-17.428377,-1.3290442,0.5270248,-24.257832,-6.560361,0.7738849,-18.212992,-5.1435037,15.384378,-19.408285,-4.2828074,0.6577948,-27.514734,-2.2102537,-2.5953317,-25.264154,-23.309587,17.71015,-5.8473434,9.990034,9.060048,-11.995291,-5.565727,5.6960473,-33.70835,-0.8234613,-5.20456,-22.529144
37.532032,-62.842083,-20.688042,28.51777,-10.401125,-18.183771,-8.075284,7.755801,-23.037937,8.96097,-6.874133,-6.3405323,3.9408207,-1.2843153,-24.746365,-2.8936431,0.7874463,-42.038544,-1.6070524,2.9195633,-15.876694,-0.5992496,7.095811,-23.645233,-1.3609924,0.5424121,-44.788746,-7.285276,0.93849003,-25.854055,-5.2388043,13.751635,-21.961018,-4.631285,0.8201838,-45.56386,-2.6362655,-2.5434384,-30.544468,-23.30958,17.71227,-5.8472652,10.106539,8.147257,-8.362763,-6.0735903,5.868716,-44.88552,-1.0799,-5.221023,-27.401632
39.36653,-63.844875,-26.554459,30.28182,-0.42416382,-13.285732,-7.771444,7.638391,-27.61665,9.059694,-6.8221316,-5.5634403,4.4901857,2.2712283,-38.005913,-2.8806496,0.7670945,-51.400703,-1.5855776,2.9502866,-16.342651,-0.5050945,7.21402,-46.749664,-1.3865266,0.5767496,-63.41657,-7.650752,1.0257468,-28.899061,-5.1044683,13.555813,-46.886192,-4.8451786,1.1660793,-66.87268,-2.8370657,-2.5247157,-32.549507,-23.30957,17.714027,-5.847255,9.901905,6.128825,-15.181261,-5.7846956,5.4566607,-33.49627,-0.5900126,-5.505473,-14.651653
35.857887,-62.167812,-15.330227,30.629913,1.0807455,-12.57763,-7.961955,7.688399,-24.735483,9.000976,-6.5105114,-7.0594387,4.4034925,5.098037,-28.739906,-2.9003105,0.76645666,-46.195526,-1.5205665,2.82847,-21.26296,-0.41538,9.743216,-40.321335,-1.3563323,0.5695107,-51.176826,-7.3553576,0.97379476,-26.1214,-4.9948773,16.112646,-39.482655,-4.5279827,1.017427,-51.314537,-2.5870986,-2.6233082,-28.972248,-23.30958,17.710798,-5.847348,10.181442,9.50312,-6.5457997,-5.1284623,5.045011,-15.429547,-0.20669381,-5.6290703,-5.719698
41.50683,-64.49679,-33.01783,30.263105,-2.7429006,-14.539211,-7.2276397,7.342019,-37.602932,7.0833607,-6.176586,-31.359867,4.784149,4.6082664,-44.213783,-2.8707783,0.72740513,-75.01276,-1.2360215,2.6379955,-39.10177,-0.41944578,8.1917515,-54.29382,-1.4036273,0.613358,-86.29041,-8.76312,1.809759,-44.218277,-5.093772,13.261707,-49.248528,-4.9252477,1.3420298,-77.47293,-3.311433,-2.1581678,-41.071392,-23.309586,17.71098,-5.847345,10.188431,5.1833797,-7.0227103,-5.273244,5.048728,-18.559963,-0.25470233,-5.600462,-8.787008
42.280178,-64.828445,-35.10967,30.559692,-1.6669838,-14.007787,-6.893404,7.181997,-43.21467,6.244958,-5.792805,-42.875095,4.8568144,6.8429985,-42.121017,-2.8612413,0.7174769,-79.17167,-1.1963596,2.637591,-42.7144,-0.33483312,10.20717,-56.678772,-1.408903,0.62166446,-91.711914,-9.180763,2.046719,-49.250225,-4.923413,15.203043,-58.63813,-5.0433245,1.5992944,-91.593544,-3.7981122,-1.8316935,-48.87976,-23.309578,17.71469,-5.847206,9.737547,5.3811183,-16.474678,-5.264283,5.1252913,-19.100466,-0.27031898,-5.5896935,-8.533198
38.914604,-63.18714,-24.328114,30.391106,-1.2205293,-13.730712,-7.4760137,7.4508176,-32.952236,7.3592777,-6.0768943,-28.172203,4.8278704,7.175411,-40.70336,-2.8695862,0.72285026,-77.0334,-1.1721089,2.5935357,-43.594013,-0.30871344,11.359581,-49.141525,-1.3891312,0.60262114,-76.41549,-8.583714,1.7680703,-42.14115,-4.9189973,16.605274,-48.2601,-4.7946825,1.3439689,-73.18566,-3.3905444,-2.0589886,-42.56458,-23.309582,17.709066,-5.847329,9.9173565,8.096401,-13.126069,-5.2252398,5.1538553,-19.84793,-0.3277275,-5.516777,-10.190665
39.348583,-63.344307,-25.556976,30.623663,-0.6245527,-13.483692,-7.0882916,7.2586427,-40.47223,6.2972727,-5.6870275,-42.073627,4.857402,7.506999,-41.76475,-2.8694694,0.71636945,-77.19799,-1.1769457,2.5560713,-44.557198,-0.2745583,11.32523,-55.4808,-1.3954115,0.6167519,-82.85773,-8.869065,2.1878805,-47.031097,-4.8552394,16.580809,-54.84491,-4.854066,1.549138,-82.673096,-3.5734982,-1.8080288,-46.47603,-23.309582,17.712753,-5.847282,10.014119,8.579085,-10.233777,-5.0023494,5.1372323,-15.73639,-0.19899906,-5.550234,-7.6727786
39.22616,-63.39489,-25.446728,30.651695,-0.7091553,-13.489598,-7.018444,7.170995,-41.592636,5.834142,-5.436746,-48.2332,4.985029,7.920707,-44.700714,-2.8595457,0.6930099,-86.356155,-1.057687,2.4623952,-52.87356,-0.24534822,12.304407,-53.801624,-1.3903606,0.61690694,-85.10032,-8.869543,2.1496863,-47.268265,-4.8256836,17.473063,-53.36,-4.8405843,1.4854144,-80.13687,-3.521218,-1.8393208,-45.958233,-23.309582,17.711508,-5.8472486,9.710381,7.2324257,-17.634144,-5.2247148,5.331422,-21.522865,-0.39284128,-5.4860497,-11.377803
37.450806,-62.62176,-19.766237,29.337603,-5.749257,-15.905967,-7.840925,7.584773,-28.445831,7.3799,-6.0177364,-28.383503,4.711754,5.140833,-42.394005,-2.873489,0.7127515,-79.03879,-1.1585089,2.4962132,-48.367737,-0.3052963,11.395299,-50.61988,-1.3860561,0.6158257,-81.73344,-8.889636,2.3065379,-48.31088,-4.9012065,17.059862,-48.434666,-4.7899694,1.495707,-79.18794,-3.6744225,-1.644672,-49.09096,-23.309578,17.712193,-5.8472385,9.885524,8.759191,-13.406284,-5.3588195,5.724121,-32.357403,-0.64479727,-5.243073,-19.298603
42.110355,-64.65291,-34.445934,30.50229,-2.5264971,-14.443871,-6.519244,6.917212,-49.044567,4.9543514,-5.2903595,-59.652462,5.0488715,8.757557,-46.49431,-2.8475866,0.68794084,-93.78673,-0.9492073,2.4329572,-58.81051,-0.24934924,11.934661,-61.482826,-1.4210945,0.6420083,-102.29556,-9.709465,2.4326916,-56.653095,-4.8306227,16.774128,-61.03749,-4.979991,1.595206,-91.241745,-3.8449419,-1.7551471,-50.39144,-23.309578,17.710588,-5.8472342,9.567907,6.1600056,-21.913195,-5.1848907,5.207345,-19.897259,-0.27424088,-5.576949,-8.85807
40.2118,-63.663494,-28.437096,30.169283,-3.5119507,-14.922588,-6.949854,7.1579537,-42.324516,5.9030585,-5.6084323,-46.914875,4.9734397,6.8200784,-46.24651,-2.8508456,0.6879183,-96.737206,-0.9067003,2.399557,-60.102886,-0.32153106,10.908535,-53.17176,-1.3980778,0.61760163,-83.826096,-9.08926,2.1798036,-49.470432,-4.9056606,16.267658,-53.074646,-4.921445,1.4900904,-83.73517,-3.8463526,-1.6689792,-51.102173,-23.309578,17.713509,-5.8472486,9.671271,7.183166,-18.10664,-5.3320193,5.411288,-24.748604,-0.4973475,-5.4094496,-15.138702
41.990246,-64.69241,-33.903748,30.149763,-3.6134064,-14.995518,-6.874592,7.1431613,-43.82869,5.6794868,-5.499155,-50.61767,5.0686016,6.281432,-52.991478,-2.8481925,0.6893872,-97.1891,-0.94998515,2.4377987,-59.542706,-0.33010706,10.037445,-64.682846,-1.4203401,0.63889194,-101.52224,-9.605582,2.338039,-55.076084,-4.926506,15.452928,-61.883987,-5.0493317,1.5966287,-93.3431,-3.917201,-1.7411103,-51.228855,-23.30957,17.714087,-5.8472157,9.876213,5.8809032,-13.26071,-5.073605,4.923349,-12.564135,-0.13386457,-5.630445,-5.392377
39.723465,-63.78017,-27.291073,30.514439,0.5844083,-12.774456,-7.509593,7.493037,-32.804337,8.077349,-6.4381604,-18.97157,4.6562777,3.572207,-40.22441,-2.8678536,0.7385265,-69.50662,-1.3605537,2.7462347,-32.64174,-0.44605365,8.189484,-46.87545,-1.3975068,0.5957918,-78.043976,-8.00013,1.3249313,-34.63363,-5.140527,13.051389,-44.52114,-4.857193,1.1974697,-69.41939,-2.7987747,-2.4904716,-32.84585,-23.309578,17.713415,-5.847243,9.642668,3.1590729,-18.791698,-5.561602,5.290125,-26.676643,-0.38387418,-5.577665,-10.126305
41.421032,-64.54631,-32.732243,29.961073,-4.231989,-15.195715,-7.1130285,7.249506,-38.986122,7.2376347,-6.1967306,-29.638947,4.880205,3.3914607,-50.17647,-2.8545725,0.7027868,-91.47929,-1.0839573,2.537755,-51.324898,-0.42944446,8.168953,-55.77348,-1.4004195,0.61407626,-89.58297,-9.027412,2.1287081,-48.837044,-5.059198,13.526377,-56.69081,-4.996517,1.4510392,-84.954575,-3.687867,-1.7239164,-49.252323,-23.30957,17.715923,-5.8471375,9.408497,3.3931737,-26.2255,-5.68614,5.5919704,-34.453754,-0.75474304,-5.29584,-20.96155
38.96071,-63.170345,-24.30856,30.452679,-0.8702872,-13.647569,-7.483061,7.489241,-33.406406,7.253621,-5.9833655,-29.91309,4.9565825,4.3276787,-51.601444,-2.8533144,0.7040125,-89.03687,-1.0480447,2.539018,-50.79095,-0.37022796,9.414786,-56.989933,-1.3946518,0.6031968,-79.96544,-8.826417,1.7551061,-44.53361,-4.917554,15.941291,-54.625275,-4.947834,1.3982899,-80.25024,-3.6811895,-1.9644593,-46.44603,-23.309574,17.715508,-5.847261,10.050285,8.299487,-7.860778,-5.1364026,4.902066,-12.768594,-0.22919446,-5.6221857,-7.212885
39.831516,-63.583393,-27.153816,30.44605,-0.436404,-13.363939,-7.3658447,7.4093537,-35.721745,7.251621,-6.0164013,-29.982708,4.9973392,4.422162,-53.04067,-2.8573985,0.7079529,-87.460335,-1.1378694,2.5703554,-46.820004,-0.3849862,9.220894,-57.37552,-1.3988055,0.61262494,-84.17059,-8.578008,1.780364,-42.345562,-5.002054,14.770847,-54.82486,-4.92111,1.4944588,-83.55927,-3.4627159,-1.9996898,-43.810078,-23.30957,17.716888,-5.8471737,9.903487,5.505768,-12.978657,-5.159406,5.1701612,-18.96945,-0.19601922,-5.600897,-6.731995
43.978416,-65.78268,-40.649967,29.501064,-8.229782,-17.218016,-6.409393,6.899816,-51.05984,5.6574197,-5.641538,-50.412262,4.985356,5.243926,-51.827675,-2.8497012,0.6918407,-94.687584,-0.992827,2.447302,-56.86799,-0.39004588,8.853899,-58.49769,-1.4096386,0.62401015,-91.62738,-8.942131,2.2412353,-48.53401,-5.0103,13.765493,-59.84391,-4.920946,1.4937059,-85.044014,-3.5764277,-1.7203289,-47.78604,-23.309582,17.716352,-5.847131,9.421148,4.2799606,-25.52283,-4.984786,4.9979377,-13.703337,-0.11149467,-5.5801377,-6.0223765
39.381527,-63.60172,-26.174683,30.12833,-2.6133401,-14.451492,-7.386688,7.377105,-34.82849,7.534602,-6.121189,-26.388367,4.654674,4.4462166,-38.80953,-2.8666725,0.7095871,-81.78315,-1.1063852,2.5133393,-48.60895,-0.4226295,8.838361,-47.93802,-1.3856928,0.6080621,-78.90949,-8.525565,1.9279253,-43.130028,-5.06454,14.309175,-46.61499,-4.7898283,1.2640637,-69.87677,-3.1850178,-1.9964211,-40.943474,-23.309576,17.711863,-5.847281,9.499503,3.713017,-24.370823,-5.743782,5.763802,-37.22805,-0.73546165,-5.2710624,-19.924942
38.93349,-63.124283,-24.399593,30.563435,-1.3880999,-13.87731,-7.11433,7.2258577,-39.27523,5.981389,-5.58409,-46.286182,5.007098,9.001513,-44.58859,-2.8602898,0.695052,-91.776115,-0.95960784,2.440255,-58.270306,-0.21764606,12.886732,-56.99639,-1.3967109,0.6241889,-90.57433,-9.289681,2.1684725,-51.3577,-4.777429,18.141745,-55.91191,-4.8663697,1.48309,-83.217094,-3.7695885,-1.8380804,-48.90768,-23.309586,17.70871,-5.847332,9.912207,9.819013,-12.469955,-4.873275,4.8532176,-8.915152,-0.118224695,-5.6500735,-5.652448
40.01069,-63.74818,-27.844116,30.355103,-2.9088361,-14.601946,-6.7268777,7.026753,-46.472824,5.384182,-5.36789,-53.856293,4.8764853,8.459604,-38.9481,-2.8654063,0.7100614,-78.04611,-1.1522858,2.542972,-47.319016,-0.25320125,12.454214,-52.065987,-1.403202,0.62645304,-92.68837,-9.249722,2.2430224,-51.26455,-4.875997,17.039864,-50.573586,-4.8542504,1.4148645,-77.77769,-3.521529,-1.9229225,-45.446907,-23.309582,17.71233,-5.847229,9.68481,7.011591,-18.014935,-5.280901,5.2641397,-20.834831,-0.43490204,-5.511098,-12.151807
39.411274,-63.481613,-26.000092,30.806498,-0.5333524,-13.50261,-7.0831428,7.261871,-39.987793,6.746683,-5.8531337,-36.179504,4.8380246,6.4834685,-42.939682,-2.8672998,0.70839465,-81.615814,-1.0540928,2.4588723,-52.51762,-0.33008415,10.16301,-56.119095,-1.3826457,0.6037696,-75.27595,-8.988058,2.377457,-49.89135,-4.8550982,16.22502,-57.08869,-4.7706833,1.3946321,-74.2478,-3.742288,-1.5347142,-50.89027,-23.30959,17.714302,-5.8472652,9.791279,8.862839,-15.272181,-4.905242,5.033571,-11.909838,-0.2819985,-5.4111733,-11.39027
38.381527,-62.873177,-22.478115,30.926971,1.3859028,-12.499838,-7.213255,7.2911553,-37.35913,6.6500306,-5.749513,-37.563313,4.707025,5.748495,-38.68074,-2.884593,0.7521528,-56.69703,-1.3619747,2.7008545,-32.813065,-0.34501266,11.079615,-44.625977,-1.3638302,0.56549823,-53.041416,-7.543358,1.2144792,-30.033415,-4.9317784,17.057396,-42.188766,-4.572773,1.0294806,-55.824776,-2.7653856,-2.483761,-33.059128,-23.309586,17.710634,-5.847313,10.009572,9.35053,-10.755781,-4.9467173,4.8981957,-12.439319,-0.099638864,-5.697999,-4.5390167
32.93792,-61.03065,-6.4640646,29.804575,-2.7359884,-14.405761,-8.780185,8.037819,-11.708092,10.063832,-6.778213,6.981139,3.5569038,2.0808427,-2.952777,-2.9311845,0.82135993,-14.568871,-1.7944359,2.9594285,-4.525839,-0.5868301,9.280887,-6.325511,-1.3088977,0.499949,-9.196439,-5.5276814,0.112893455,-5.0549107,-5.1255198,16.960896,-7.107768,-4.085932,0.35197088,-10.459602,-1.3222245,-3.2843049,-9.999514,-23.309593,17.70721,-5.847418,10.493541,13.3849945,2.5697126,-5.0299025,4.904462,-11.269108,-0.2732637,-5.5989413,-7.3476124
33.122173,-61.06022,-6.992277,30.065952,-1.1541226,-13.646275,-8.717532,8.015218,-12.71997,10.385494,-6.8193593,10.827335,3.7078202,2.1773987,-8.231232,-2.9346035,0.81993353,-13.93884,-1.8370082,2.960826,-2.6575353,-0.5894711,8.802309,-11.148341,-1.3059837,0.5013831,-7.4445415,-5.282132,0.06410487,-2.483448,-5.1536336,16.395744,-10.375586,-4.025157,0.35021934,-8.672571,-1.1982436,-3.321728,-8.293778,-23.309591,17.707914,-5.8474283,10.533262,12.068607,2.109542,-4.8691993,4.8553576,-8.253359,-0.096014716,-5.6551175,-3.3932717
33.554024,-61.19805,-8.214493,30.869375,3.2478843,-11.52286,-8.646221,8.014735,-13.709703,10.679307,-6.85571,14.371506,3.9345474,3.3378177,-13.127502,-2.9328227,0.82027566,-12.588719,-1.8831197,2.9959512,-0.010066748,-0.5334505,9.387894,-17.233532,-1.310426,0.50360554,-8.540594,-5.353006,0.061548103,-3.1627998,-5.125604,16.347052,-15.745027,-4.0543766,0.35362905,-9.396821,-1.2601515,-3.3042371,-9.279152,-23.309591,17.706274,-5.847467,10.303101,10.408165,-3.5652409,-4.956563,4.8708606,-10.007862,-0.05613686,-5.654097,-2.8424957
33.78684,-61.05463,-8.545634,30.98645,3.7335696,-11.284031,-8.346078,7.925079,-18.083511,10.328787,-6.8849034,10.116486,4.033195,3.1190383,-16.41685,-2.9294367,0.81922936,-14.778925,-1.8475236,2.9879558,-1.71439,-0.5037508,9.299013,-20.612514,-1.3108444,0.5029095,-9.747671,-5.459823,0.09110743,-4.5589514,-5.151512,15.801641,-17.038198,-4.0886555,0.36075273,-10.720275,-1.3618745,-3.2738783,-10.788631,-23.309595,17.705448,-5.8475,10.267643,9.332117,-4.4351325,-5.108184,4.970736,-14.550233,-0.12978834,-5.6217084,-4.686163
32.578575,-60.745007,-5.188679,30.88503,3.6327193,-11.311544,-8.640884,8.002226,-13.599037,10.604051,-6.8658876,13.5487995,3.9517999,3.3338814,-13.562971,-2.9354122,0.8219532,-11.845785,-1.8554143,2.9779978,-1.5420043,-0.5181154,9.390888,-17.533451,-1.302971,0.50025886,-7.0657525,-5.394794,0.101871476,-3.7708282,-5.136591,16.354076,-14.122021,-4.007937,0.3443733,-7.630069,-1.2628185,-3.2892983,-9.25243,-23.309593,17.706627,-5.847471,10.432185,10.63645,-0.6842189,-4.974266,4.959122,-12.080244,-0.1170062,-5.618915,-4.147925
34.199085,-61.497185,-10.299999,30.765085,2.841886,-11.676565,-8.676149,8.023459,-13.290554,10.47314,-6.9150476,12.151761,3.8963366,2.8661325,-12.952834,-2.9256353,0.8160501,-18.1801,-1.826977,2.982676,-2.9552329,-0.5426264,8.928636,-17.530745,-1.3211294,0.5140838,-17.862389,-5.7774763,0.25578654,-8.122828,-5.1297092,15.95068,-17.395708,-4.179359,0.49286503,-18.655537,-1.4872514,-3.1825404,-12.66379,-23.309593,17.70756,-5.847417,10.187951,10.138559,-6.329335,-5.1454077,5.089338,-16.928753,-0.25942025,-5.579606,-7.53821
34.800518,-61.59294,-11.868977,30.834806,2.57101,-11.857428,-8.385389,7.929573,-17.801203,10.315799,-6.9355326,10.168502,3.9140148,2.0179124,-15.179201,-2.9224565,0.81844175,-18.959044,-1.8508524,3.0087276,-1.4521637,-0.5741001,8.05051,-18.795143,-1.326801,0.5122282,-18.25782,-5.782165,0.20174968,-8.066866,-5.2076406,14.733097,-17.065742,-4.2488594,0.4733216,-19.626877,-1.5935163,-3.1617074,-14.181829,-23.309593,17.706942,-5.847437,10.2509575,8.590063,-4.8634224,-5.2797174,5.0727057,-18.77992,-0.3059163,-5.570287,-8.839645
34.183224,-61.335735,-10.07001,30.601593,1.85262,-12.197819,-8.480156,7.9575634,-16.199005,10.44367,-6.974176,11.789353,3.9567597,2.0786023,-16.266556,-2.9297457,0.8222233,-13.74527,-1.8724204,3.0142546,0.19857669,-0.5502946,8.505905,-18.901007,-1.3128455,0.501409,-9.880743,-5.4027796,0.05805234,-3.586378,-5.1915064,15.324981,-14.683193,-4.098653,0.3354657,-9.6868725,-1.2689762,-3.3258896,-9.0571785,-23.309591,17.706467,-5.8474774,10.433541,9.764836,-0.3874874,-5.124357,4.940235,-13.912812,-0.14105731,-5.6289244,-4.650631
35.348335,-62.0254,-13.974,31.019102,3.3892894,-11.476392,-8.405837,7.9531107,-17.376125,10.456947,-6.9958644,12.097435,4.0238204,2.6470246,-17.214996,-2.9234712,0.81775093,-16.65844,-1.8591784,3.035751,0.117109776,-0.552458,8.221622,-21.012058,-1.3235241,0.5093104,-14.432346,-5.6663146,0.09976585,-6.1813107,-5.1853404,14.975656,-17.912031,-4.2008867,0.4133501,-15.427354,-1.4412788,-3.2701042,-11.503267,-23.30959,17.706415,-5.847464,10.346928,8.759921,-2.9630451,-5.289695,5.0264688,-17.728485,-0.22879048,-5.6070976,-6.731911
35.558502,-62.07397,-14.554823,30.19393,-0.20199347,-13.185297,-8.462714,7.9335246,-16.638332,10.269904,-6.9892664,9.715882,4.0824194,1.9916795,-22.37076,-2.906062,0.7963893,-32.070488,-1.7066436,2.955773,-9.61425,-0.54959124,8.452806,-22.800728,-1.3387458,0.5230158,-25.642345,-6.1556835,0.38526788,-12.180099,-5.1519237,15.220837,-21.355755,-4.3364058,0.54674137,-26.135262,-1.8240979,-3.0039191,-17.945667,-23.309586,17.708078,-5.847389,10.082905,9.075014,-8.797218,-5.4549236,5.2121115,-23.948177,-0.44221327,-5.495106,-12.261534
34.45936,-61.37389,-10.7084675,30.667109,2.1478784,-12.03515,-8.502895,7.976299,-15.862569,10.332363,-6.9438887,10.390067,3.8639922,1.7579627,-13.648362,-2.9263072,0.8234424,-15.545594,-1.863497,3.0060334,-0.5555184,-0.5697829,8.38709,-16.39488,-1.3183463,0.50049025,-11.785884,-5.432234,0.039910056,-4.038088,-5.1984916,15.1404915,-14.372418,-4.1748033,0.36049548,-13.211995,-1.3463768,-3.3081713,-10.339442,-23.309595,17.705992,-5.8474717,10.28856,9.641369,-3.0723147,-5.168291,4.911226,-14.2699,-0.18772668,-5.6303706,-5.8199234
38.06906,-63.050926,-22.106579,30.044807,-1.939132,-14.044825,-7.9684453,7.749116,-24.136988,9.500032,-6.9755616,0.2895031,4.0405293,3.051001,-17.475367,-2.895802,0.7909079,-39.313267,-1.6312279,2.9373338,-14.506311,-0.48704866,8.634269,-26.577934,-1.3683227,0.5558806,-49.346706,-7.3740287,1.0382081,-27.363434,-5.1455364,14.217507,-28.58361,-4.6442256,0.88511616,-48.52372,-2.6257687,-2.507764,-30.876568,-23.30959,17.710133,-5.847325,9.576069,5.6024537,-21.338354,-5.9944487,5.7703958,-42.6018,-0.8982757,-5.23981,-24.015776
37.922802,-62.89139,-21.58681,29.476662,-5.12066,-15.595485,-7.946721,7.704042,-25.10528,9.072421,-6.8115306,-5.3521442,4.006998,2.1831915,-18.678274,-2.892456,0.7806776,-45.168,-1.5349693,2.8403578,-21.436205,-0.499764,8.873135,-24.936716,-1.3631626,0.5509736,-47.133457,-7.3702602,1.2119293,-28.595139,-5.1319327,14.547577,-28.23415,-4.6021466,0.8438965,-46.274185,-2.657947,-2.3668277,-32.41114,-23.309587,17.709768,-5.847304,9.402075,6.397268,-25.722872,-6.021829,5.8722,-44.73093,-1.0186675,-5.1455593,-27.199833
33.438313,-60.993782,-7.581483,31.132414,4.7579074,-10.760687,-8.5546255,7.9909716,-15.009395,10.4570465,-6.877378,11.777579,3.918371,2.756524,-13.425419,-2.9284358,0.8219319,-15.247602,-1.8482602,2.9815695,-1.9601054,-0.54331976,8.85393,-17.339287,-1.3139918,0.50171256,-11.362683,-5.5193143,0.115457304,-5.3011446,-5.170427,15.549864,-15.252608,-4.141284,0.3845388,-13.227167,-1.4119625,-3.2376816,-11.649664,-23.309597,17.705996,-5.847471,10.263658,9.563379,-3.9929445,-5.1347356,4.9689255,-14.940542,-0.21215366,-5.5978293,-6.642831
34.395767,-61.499493,-10.741093,30.821075,2.5366971,-11.877153,-8.361255,7.908368,-18.096472,10.073024,-6.825773,7.0603156,3.9641047,3.3507254,-14.433331,-2.9254818,0.8155289,-16.835472,-1.8307652,2.9970481,-2.111943,-0.51439476,9.069116,-21.55658,-1.3253484,0.5197767,-20.493933,-6.0199533,0.3680977,-10.93557,-5.123867,15.840572,-18.992672,-4.2071915,0.5265442,-20.522694,-1.6402091,-3.1162086,-14.84936,-23.309591,17.707241,-5.8474436,10.389985,9.916836,-2.013472,-5.2045712,5.0986214,-18.006824,-0.27210984,-5.57224,-7.9892607
33.48427,-61.07136,-7.8380346,31.148685,5.2685013,-10.495384,-8.714821,8.036342,-12.6313505,10.70113,-6.903433,14.762775,3.9244077,2.7834678,-13.789674,-2.9295328,0.82259446,-14.658581,-1.8686293,2.9837434,-1.2159736,-0.54961854,8.785348,-17.57252,-1.3143284,0.50148135,-11.213025,-5.4216537,0.09365362,-4.1890197,-5.170329,15.488038,-16.024326,-4.1337767,0.38248697,-13.060509,-1.3500274,-3.2548084,-10.779617,-23.309595,17.706419,-5.847463,10.198274,9.350313,-5.646167,-5.09154,4.9529104,-14.006731,-0.16905607,-5.6098285,-5.6607366
34.491127,-61.59448,-11.1349745,30.43973,1.3392267,-12.420155,-8.538478,7.96325,-15.35958,10.333993,-6.9103866,10.16651,3.979715,2.4155133,-16.643055,-2.926133,0.81721944,-17.032835,-1.8263665,2.9814844,-3.4890864,-0.5258942,8.950729,-19.984818,-1.3165692,0.50601864,-14.231467,-5.606438,0.15601096,-6.0605783,-5.161395,15.581554,-17.375977,-4.147478,0.40371478,-14.858488,-1.4200714,-3.2352395,-11.613361,-23.309593,17.707117,-5.8474417,10.164472,9.348616,-6.538975,-5.2008452,5.063614,-17.747004,-0.2199435,-5.5869384,-6.5995708
32.594852,-60.74792,-5.2052774,31.33933,6.283475,-10.018309,-8.655323,8.031955,-13.308532,10.890965,-6.9100223,17.121346,4.048807,3.764676,-16.282894,-2.9320579,0.81807745,-13.487767,-1.869106,2.9897895,-0.8758004,-0.5091142,9.468057,-20.784447,-1.3087425,0.5046937,-9.119273,-5.433084,0.09945756,-4.191686,-5.1243134,16.255499,-17.397455,-4.041682,0.35759756,-9.278911,-1.3046832,-3.2784915,-10.009469,-23.309591,17.705755,-5.8474803,10.316342,9.877785,-3.810294,-5.0238776,4.9577026,-12.941717,-0.10223315,-5.6229143,-4.0835958
34.043236,-61.245235,-9.555201,31.02144,3.784102,-11.281896,-8.284352,7.8942366,-19.13097,10.3835745,-6.8527727,10.675971,4.124693,3.3978314,-19.056091,-2.9335468,0.81881905,-12.598235,-1.8718952,3.0039608,-0.4378127,-0.48353153,9.554184,-24.290031,-1.306995,0.5025457,-7.47924,-5.386702,0.061535105,-3.633007,-5.121016,16.078289,-20.777857,-4.0410485,0.34187055,-8.380978,-1.3033147,-3.2924078,-9.851705,-23.309593,17.705791,-5.847491,10.171639,9.236496,-7.824905,-5.102844,4.992964,-14.567285,-0.0699674,-5.6358056,-3.0866501
35.007782,-61.77009,-12.700724,30.832443,2.841363,-11.697332,-8.483151,7.937689,-16.41517,10.217149,-6.8400874,8.69422,3.9846215,2.9301612,-15.978262,-2.9218047,0.8109867,-21.853413,-1.7943676,2.9612546,-5.713654,-0.52234954,8.837063,-22.928675,-1.3303714,0.52195555,-24.039007,-6.1285353,0.46170753,-12.823181,-5.132365,15.2383,-23.700602,-4.2859874,0.58127576,-25.450102,-1.7987385,-2.9765804,-17.98303,-23.309593,17.70796,-5.8474026,9.872902,8.231996,-15.104148,-5.4230547,5.347408,-26.04395,-0.4496039,-5.47183,-12.612478
33.541588,-61.237026,-8.332577,30.46254,0.8831172,-12.681141,-8.568107,7.981602,-14.934917,10.521577,-6.9102263,12.690355,3.8525422,2.2796504,-12.421424,-2.9315512,0.8215977,-13.062918,-1.8699409,3.0092542,0.021544695,-0.5773901,8.590278,-14.533278,-1.3105439,0.50184184,-8.547878,-5.372524,0.028522767,-3.1164327,-5.188946,15.69479,-11.557344,-4.067534,0.33005854,-8.676458,-1.2423236,-3.338419,-8.673693,-23.309591,17.70698,-5.8474455,10.5269575,10.450602,1.637145,-5.0645394,4.9187512,-12.34155,-0.1538631,-5.6323323,-4.760246
34.79031,-61.70453,-12.113019,30.19431,-0.10240626,-13.120996,-8.463602,7.933037,-16.66827,10.282566,-6.8974137,9.7472315,4.0021634,1.8873544,-19.76186,-2.918458,0.80449253,-24.346924,-1.7884678,2.9591064,-5.5046597,-0.5653977,8.365424,-22.004948,-1.3291557,0.51856834,-21.885485,-5.767701,0.21121895,-7.8065047,-5.183285,15.186014,-18.806288,-4.216466,0.46028674,-19.535835,-1.4806396,-3.2335968,-12.357542,-23.30959,17.707127,-5.847415,10.291022,9.182528,-4.5257792,-5.201821,5.0288057,-16.960114,-0.20995668,-5.62341,-6.1314898
38.350998,-63.196095,-23.012293,28.23827,-11.547435,-18.72834,-7.941256,7.6886835,-25.251879,8.943373,-6.8061132,-7.053463,3.7640057,-0.31871963,-15.406893,-2.8956487,0.79112697,-37.54724,-1.6547258,2.937184,-12.635202,-0.60175,7.8135405,-15.641214,-1.359141,0.53455055,-38.405396,-6.4449816,0.43966714,-15.429253,-5.2561836,13.781783,-17.394598,-4.568821,0.6948842,-40.19124,-2.1283536,-2.9243102,-22.17053,-23.309587,17.710014,-5.847322,9.808914,6.8991356,-14.614688,-5.8776565,5.53679,-36.6489,-0.7377541,-5.424959,-18.534391
37.01196,-62.641148,-18.877293,30.176096,-1.0889442,-13.6131,-8.018085,7.711754,-23.82469,9.258448,-6.6575665,-3.542554,4.144511,2.133153,-23.981926,-2.9058077,0.7850345,-37.661453,-1.5929116,2.8208253,-18.360224,-0.5084577,8.311607,-29.657711,-1.339978,0.53462905,-34.605434,-6.7027254,0.9348181,-20.664501,-5.127578,14.74502,-29.883186,-4.397914,0.7087524,-35.03794,-2.1415424,-2.6414557,-24.444445,-23.309587,17.709177,-5.8473506,9.6261635,6.9606657,-21.38969,-5.6464605,5.6294384,-35.17409,-0.6977537,-5.297849,-19.085594
38.027153,-63.067513,-22.050247,30.03229,-2.2254932,-14.19625,-7.837526,7.6661167,-26.759792,9.306314,-6.8820415,-2.3625546,4.053162,1.4507403,-21.535465,-2.8931105,0.7773584,-43.95448,-1.558793,2.8484945,-19.983316,-0.5007769,7.5195208,-32.272827,-1.368252,0.56284696,-52.550198,-7.8813715,1.6057522,-35.282536,-5.1394243,13.242217,-36.07232,-4.699084,1.031934,-55.724762,-3.1010222,-1.9850934,-40.20207,-23.309586,17.713985,-5.8472414,9.196245,3.9016986,-32.629765,-6.379575,6.4306445,-60.78275,-1.39926,-4.890739,-37.52316
37.267735,-62.686966,-19.67838,29.711962,-3.881952,-15.024277,-7.947356,7.7486105,-24.89265,9.370995,-6.8513136,-1.709218,4.090022,1.4656334,-22.528624,-2.9036496,0.7939935,-33.828865,-1.6752126,2.937729,-11.237166,-0.53481984,8.099232,-25.385517,-1.3452603,0.5311023,-32.093964,-6.4926047,0.601169,-16.681108,-5.1833844,14.34609,-23.902477,-4.453045,0.679566,-34.194244,-2.109045,-2.8165505,-22.408283,-23.309587,17.709435,-5.8473907,10.028124,7.5992336,-10.285816,-5.6601963,5.403022,-30.196918,-0.5548012,-5.4355354,-14.876661
37.61834,-62.88117,-20.83535,30.089619,-2.1112425,-14.176122,-8.006508,7.7617617,-23.933464,9.527679,-6.9112263,0.33037758,4.118659,1.5161312,-23.638529,-2.9015388,0.7968642,-34.570374,-1.674028,2.9565485,-11.082024,-0.56421185,7.606549,-23.450075,-1.3438586,0.52325624,-27.95985,-6.2086763,0.34534028,-12.669125,-5.231775,13.881253,-20.801277,-4.417272,0.5670324,-29.266335,-1.8875582,-3.0256033,-18.606552,-23.309587,17.708708,-5.847391,10.118278,7.078045,-7.4883647,-5.510778,5.137201,-23.363564,-0.38599488,-5.547264,-10.695351
36.46693,-62.284054,-16.88311,29.356152,-5.121437,-15.585622,-8.180508,7.838403,-20.713125,9.968194,-6.971956,5.8766594,3.9292479,0.14266753,-19.673223,-2.9174452,0.8123591,-24.230953,-1.7713809,2.9436677,-7.4885426,-0.56030864,7.9578066,-21.71978,-1.3293368,0.5120418,-21.608658,-6.008412,0.43417603,-11.73596,-5.2101464,14.513046,-20.978512,-4.2856007,0.45680517,-21.207266,-1.7467275,-2.9935415,-17.531424,-23.309593,17.709246,-5.8474007,9.927579,8.641385,-12.491074,-5.3998227,5.1506977,-22.652685,-0.41117078,-5.480283,-11.658661
35.44486,-61.741676,-13.663352,30.56282,1.4196888,-12.387529,-8.281038,7.9011326,-19.255789,10.008755,-6.922968,6.280417,3.984958,1.8949573,-17.13522,-2.9189656,0.815675,-21.464378,-1.7942276,2.978762,-4.712943,-0.53366894,8.559599,-20.058676,-1.3249022,0.50734276,-17.457783,-5.7301,0.16366133,-7.617435,-5.1924086,14.883902,-18.377428,-4.2595663,0.45098984,-19.65357,-1.5816994,-3.182318,-14.054007,-23.309595,17.706472,-5.847465,10.051437,8.421226,-8.636012,-5.315666,5.050937,-19.429844,-0.26729107,-5.587311,-7.921549
35.63511,-61.901222,-14.44976,30.394026,0.52479434,-12.847269,-8.1977825,7.8534694,-20.715118,10.089754,-6.950305,7.3547897,4.0211396,1.4606624,-20.015541,-2.9183612,0.8134015,-21.58561,-1.8169901,3.00052,-3.290114,-0.5466581,8.195202,-22.900003,-1.3265315,0.5086211,-17.124517,-5.6579146,0.15203041,-6.636801,-5.184165,14.7469015,-21.10057,-4.2470984,0.42612737,-18.356945,-1.5046489,-3.2099113,-12.738708,-23.309591,17.707563,-5.8474364,10.032555,8.543256,-10.762143,-5.4054675,5.129632,-22.014875,-0.32009047,-5.574185,-8.746587
33.8874,-61.357357,-9.381462,30.86802,3.2363756,-11.5278635,-8.534676,7.9801955,-15.396843,10.571682,-6.9431405,13.375734,3.9803262,2.4409604,-16.933702,-2.9304376,0.8204645,-13.763897,-1.8781298,3.0174503,0.60890245,-0.5608516,8.443178,-19.807518,-1.3117793,0.50243574,-9.122005,-5.3915925,0.026813187,-3.1831634,-5.1664033,15.697902,-15.683994,-4.0681763,0.32328972,-8.496703,-1.2151573,-3.3695652,-8.117764,-23.30959,17.70651,-5.8474617,10.521758,10.565887,1.3323827,-5.0042825,4.837916,-10.177973,-0.07160787,-5.672156,-2.866463
34.02032,-61.26072,-9.457509,31.077297,4.3306518,-10.99867,-8.416499,7.9600534,-16.95955,10.538216,-6.9397216,12.751495,4.0909805,3.4348712,-17.787592,-2.930734,0.819603,-13.332491,-1.8656151,3.0053236,-0.49968898,-0.49232697,9.446228,-22.359123,-1.3095624,0.5025692,-8.484796,-5.3972697,0.049611658,-3.6134748,-5.1305823,16.029697,-18.478874,-4.057214,0.32766286,-8.394035,-1.2697713,-3.3264399,-9.270312,-23.309593,17.70515,-5.847505,10.235282,9.537404,-5.1789103,-5.0666847,4.9158688,-12.73006,-0.056130767,-5.6469817,-2.8718767
34.777386,-61.653507,-12.055023,30.91173,2.808556,-11.758995,-8.195847,7.8108845,-20.988451,9.94477,-6.697524,5.08572,4.274331,3.78438,-24.75275,-2.9174569,0.788305,-30.410969,-1.6957867,2.881975,-11.270007,-0.48224375,9.306311,-27.445612,-1.3214808,0.5273653,-21.734064,-6.0929804,0.607404,-12.991415,-5.095658,15.895411,-25.327602,-4.2014546,0.65305734,-25.580513,-1.8657196,-2.8141675,-19.74644,-23.309584,17.708063,-5.8474054,10.104495,8.066285,-10.819167,-5.335458,5.4853935,-26.879448,-0.41542095,-5.414391,-12.294839
37.033344,-62.609066,-18.91666,29.672117,-3.6839178,-14.903765,-8.147455,7.828389,-21.559868,9.898603,-6.9943023,5.0061336,3.899033,0.17644,-18.07889,-2.9184198,0.81739724,-21.278614,-1.8200556,3.0010233,-3.69099,-0.5853795,7.3977623,-20.917278,-1.3313322,0.51039666,-21.267048,-5.9046354,0.28009564,-9.830032,-5.249886,13.837575,-19.511436,-4.3169127,0.4483836,-21.34949,-1.6577685,-3.11268,-15.365787,-23.309595,17.708162,-5.847408,9.979916,7.7127247,-11.25407,-5.5148473,5.189497,-24.658363,-0.42264795,-5.5121555,-11.404181
38.943295,-63.527996,-25.008278,29.100443,-7.5237474,-16.79478,-7.702826,7.5921454,-28.973597,8.888874,-6.751505,-8.014791,3.9941247,0.032772303,-22.562407,-2.8982277,0.79016596,-36.035393,-1.6523273,2.9223177,-13.023459,-0.5825982,7.208556,-23.605782,-1.3497727,0.52940786,-34.20533,-6.45718,0.5456231,-16.15284,-5.254189,13.149618,-23.987858,-4.5099244,0.6785269,-37.834064,-2.1355016,-2.8283641,-23.098482,-23.309586,17.709959,-5.8473344,9.654221,5.281752,-19.778833,-5.909444,5.6658125,-39.740246,-0.76442075,-5.3641567,-19.782331
37.349556,-62.630016,-19.658745,29.732552,-3.4582074,-14.772571,-7.9289055,7.717795,-25.067625,9.14034,-6.864473,-4.263215,3.9484253,0.37173712,-20.111296,-2.9011707,0.7980247,-33.73119,-1.6723877,2.9351435,-11.932038,-0.5650024,7.378992,-23.214478,-1.3513775,0.5313352,-35.89502,-6.8060994,0.84550625,-21.054209,-5.2456355,13.408522,-21.720064,-4.5376043,0.7121798,-38.581955,-2.349829,-2.6222575,-26.8598,-23.30959,17.710157,-5.847327,9.867996,6.1557927,-13.934637,-6.016988,5.802947,-43.75651,-0.95981956,-5.2060413,-25.399786
38.42622,-63.338505,-23.316204,28.901335,-8.5477295,-17.300789,-7.8715925,7.7188907,-25.805029,9.082239,-6.9048715,-5.1233225,3.8409183,-0.3819921,-17.157732,-2.8941655,0.7957208,-37.080482,-1.642671,2.9615262,-13.177274,-0.58601815,7.301152,-19.527311,-1.3603702,0.5337987,-39.181946,-6.93084,0.6093501,-21.090033,-5.253953,13.306988,-20.772928,-4.6510983,0.73655856,-43.31698,-2.4967208,-2.7138767,-28.123085,-23.309591,17.71128,-5.8473077,9.716694,6.114871,-15.732837,-6.0857334,5.6687546,-41.96725,-0.92692655,-5.3092413,-23.760899
42.181988,-64.96942,-35.30172,28.432323,-12.016059,-19.022104,-7.24965,7.388676,-36.532673,8.105759,-6.863539,-17.049007,4.064533,-0.8979001,-27.030739,-2.8612444,0.75670403,-63.850506,-1.3932482,2.8368568,-27.748196,-0.60906184,5.870941,-28.793907,-1.4053777,0.5777595,-70.408356,-8.363304,1.4471132,-38.72646,-5.334163,10.86627,-31.280384,-5.013669,1.0887516,-68.8791,-3.3606348,-2.1011653,-42.512943,-23.30958,17.714256,-5.847195,9.21589,1.2941041,-30.560097,-6.831039,6.4361854,-67.36743,-1.597017,-4.9550543,-40.756294
39.358116,-63.730717,-26.492828,30.12123,-2.627083,-14.419949,-7.7783403,7.665915,-27.905872,9.001459,-6.9509964,-5.915697,4.076817,0.5916178,-23.846935,-2.8822381,0.7827626,-45.027958,-1.5657145,2.9342418,-17.173466,-0.5881788,6.290534,-27.210592,-1.3755226,0.5505306,-50.338154,-7.5227394,0.9627429,-28.308397,-5.2776117,12.157336,-25.945177,-4.752489,0.8311564,-49.304474,-2.684886,-2.554862,-31.134842,-23.309586,17.711496,-5.8472905,9.839888,4.1977386,-14.757555,-6.2388787,5.7406616,-45.325893,-1.0411818,-5.250366,-26.904177
