40.72211217733798,-64.11652123292765,-30.020763883186174,30.152925581869077,-3.253151390419847,-14.847902822813191,-6.850450142665093,7.031367893314099,-43.78882370979996,6.1610709804843,-5.636035678466945,-43.606648163081246,4.976056270240654,2.8621104083711533,-53.71403970549297,-2.8498034458067507,0.6784086248529272,-105.97289174589942,-0.9229951252181217,2.497132339029265,-53.045033139492105,-0.4488950948231522,8.434534661027282,-39.634992894566466,-1.2917994535890553,0.4995256807667653,-1.7685517477133894,-5.125350174663638,0.0686494755318416,-1.2842713688868717,-4.785831516152851,16.464511124060394,-65.01221876236994,-5.051242830512061,2.0171553111501597,-108.00562291173765,-4.099145852945657,-1.5071927535058602,-54.78443032812539,-23.30960070986916,17.705230621583738,-5.847499817256209,8.02694017830166,2.40188379982864,-69.77841876199797,-6.9640600367968855,7.944993334367537,-100.72282145761878,-1.7942476378772114,-4.834733319733199,-45.896784083857646
40.873579549305624,-64.23740660853832,-30.56799930013473,30.195327650697827,-2.9476004706479135,-14.693338111848414,-6.854282607566181,7.035312935568053,-43.70925652969669,6.207594216207258,-5.681268608110444,-42.8386346240541,4.9880360929335525,3.049746333325652,-53.901545982959234,-2.8496084456252033,0.679509394213865,-105.41739250055603,-0.951329950616257,2.528442024600754,-51.03894938200058,-0.46694027586375464,8.16905979695876,-38.26093564246416,-1.2944830437564097,0.4997533659065244,-3.0655131285131336,-5.1822951148467205,0.07183259551889319,-1.8702732189015314,-4.800060949775431,16.314151177975948,-64.06296320844781,-5.050610672756125,2.019242903691192,-108.10275120942138,-4.091046126940725,-1.518749058675013,-54.59893613209817,-23.309600562925606,17.70523050997013,-5.847499780393609,8.047301712495598,2.3851391678436467,-68.51516780957164,-6.965646904987406,7.932254922722026,-100.43879072176111,-1.8331695064078013,-4.795790698580148,-47.10241029460312
40.472869131917825,-63.8988092453846,-29.091332261877106,30.14232800973084,-3.3162198273506345,-14.879212269018767,-6.865637178582997,7.047225760127654,-43.47052304241074,6.045064918265715,-5.534782448553475,-45.43632788661681,4.948427454969492,1.1666173594181533,-57.02421334587102,-2.849807383447484,0.6782908051653507,-106.03121141660637,-0.868686912069165,2.4272231797403756,-57.243813238991876,-0.4348261076040808,8.648612686428327,-40.63094201339915,-1.2905015747494217,0.49943595733949914,-1.1405157870829576,-5.026027363537619,0.0656576896612013,-0.26365301505001015,-4.796937373604937,16.250306269083122,-65.8424825501278,-5.0501058199975315,2.0208871767244774,-108.18101918206193,-4.1114782314443925,-1.4914193357999264,-55.04764419887208,-23.30960081631614,17.70523070243746,-5.847499843959747,8.030645390947344,2.4156056798436056,-69.40947793524822,-6.952717116722682,8.005496621108437,-102.08649673449841,-1.7834742802047936,-4.847526850376363,-45.530237185648026
40.63711247876121,-64.0191881712261,-29.666222619224737,29.89436790208249,-4.883371977138166,-15.663157401357777,-6.870221051764187,7.051239954822847,-43.38265761405339,5.757954698051111,-5.207501412666378,-50.59453581484705,4.904036408589987,0.488078028388749,-56.61724727080292,-2.8504596382726066,0.6757731447625459,-107.31951808956323,-0.8480081522829133,2.394669216358143,-59.067168277607706,-0.40910456236280984,9.263891904571244,-40.07948265588496,-1.289179165867877,0.49938151925625585,-0.501305618463733,-5.0347326783963915,0.06586471828228192,-0.3531729543945826,-4.795032196439596,16.309251575850418,-65.29129902976202,-5.050248250851538,2.0205786002653614,-108.16586814498673,-4.1735905702502745,-1.3996804896088455,-56.50349634541401,-23.309600531335903,17.705230485975697,-5.847499772468932,8.061960835141539,2.116503752856166,-67.47129625214676,-6.942840365161183,8.04945120784458,-103.08410678946711,-1.821789951236982,-4.810086817354072,-46.70288441370297
40.295835820103946,-63.761260409906015,-28.459266208514546,29.932055511025546,-4.645457301532081,-15.54414200635565,-6.839256547120569,7.02199995184527,-44.00051753665114,5.82610737344889,-5.28738114496975,-49.350803070544444,4.899492572356273,0.3266026130464717,-56.86321525783462,-2.850169379589833,0.6768812851109098,-106.7525356417429,-0.8503803188479102,2.3987900188920572,-58.84284683533585,-0.41823357274829254,8.989399311851436,-40.86296576377009,-1.2888744110674353,0.4993626505451227,-0.3547853748273175,-5.00723506913446,0.06510526465673704,-0.07038517012814786,-4.805464871313527,16.129425213820657,-65.79726563716184,-5.0497395625539205,2.022295145694907,-108.24658272916383,-4.156004780575089,-1.4272623076673951,-56.073551426770976,-23.309600812375578,17.70523069944436,-5.847499842971206,8.047230100288937,2.1938051667269907,-68.35427927339325,-6.946200745524084,8.035283974182697,-102.76190965887216,-1.8272830860921578,-4.803088460451055,-46.896651589592715
40.47716310930234,-63.906384510933904,-29.112935843181948,29.76886912432381,-5.670834263737662,-16.056775462986337,-6.855905327808483,7.036267813721954,-43.68283799415797,5.6548725613481885,-5.08541121510386,-52.48729267387886,4.880850683716719,0.2946216044193791,-55.92521842026988,-2.8504659116403412,0.675763250954787,-107.32495936597815,-0.8394875985414194,2.3794579211613827,-59.89229499765681,-0.4117857548826594,9.165128209988362,-40.49728607512167,-1.2889397580823563,0.4993673222871324,-0.38558317607834636,-5.078594065781369,0.06914527256020231,-0.8055344047954937,-4.798870561150893,16.25736766960313,-65.19534896887731,-5.052704895345283,2.0114568426719246,-107.7424958047494,-4.2190373027025005,-1.3278649201704567,-57.621212986354756,-23.309599792947942,17.705229925119838,-5.847499587235222,8.061009535616678,1.9155538127903382,-67.45325236514971,-6.940305063517768,8.060088456789927,-103.32636635001542,-1.8497509540000778,-4.780363772494123,-47.59556803594068
40.38128487812382,-63.82884259328439,-28.765718024317337,29.80170291990062,-5.475841872485978,-15.959845540689418,-6.8559754358689595,7.036454188317012,-43.68020260065952,5.667642091778479,-5.102195310523395,-52.23777576914406,4.884288875511501,0.23091509380569378,-56.30558183748833,-2.8504830716649847,0.675709060817087,-107.35298400239527,-0.8393486492828107,2.3795552689823536,-59.89221757880757,-0.4023998231350845,9.326526944846716,-40.97110547674344,-1.2888052297373673,0.49936396593665044,-0.3199562036791942,-5.085604203849782,0.06890417457988045,-0.8773552431578331,-4.789676936396994,16.36378696304756,-65.64362126219392,-5.053031664315089,2.010494476198702,-107.69704651609429,-4.215899899513018,-1.332438849815567,-57.548457209909685,-23.30959985775702,17.70522997434672,-5.847499603493377,8.059996967498343,1.924905335761562,-67.51627068281417,-6.942415803931043,8.051130779546591,-103.12255730775455,-1.8484123591279273,-4.781934992455952,-47.550731857186996
40.25936239323516,-63.735409758850835,-28.33317198298878,29.872491155692067,-5.02690052796397,-15.735151275941607,-6.831531552772563,7.013909277605872,-44.16253552544345,5.742937815190154,-5.191198963998464,-50.85745218067664,4.870399219221728,0.15291182752606228,-55.80306224002135,-2.850266850992776,0.6764924327320705,-106.9509581037654,-0.8448943463183398,2.389139338577475,-59.3674409946267,-0.42864929977249877,8.806445118241298,-40.37436957749538,-1.2885244401386218,0.49934652106362615,-0.185909930019493,-5.032326234715667,0.0666347159784113,-0.3292496465897291,-4.81945291428963,15.958580819112779,-65.26889688241734,-5.049893944187261,2.021561370204819,-108.21258030201263,-4.182413377463002,-1.386330600177864,-56.71399765109527,-23.309600612345985,17.70523054750832,-5.8474997927913135,8.050673639996472,2.00859541586709,-68.06231723040561,-6.942304529511916,8.052317339048685,-103.14875129676822,-1.8581824753757028,-4.771312821885992,-47.866471012931214
40.44259668960882,-63.86244769176021,-28.96263874377928,30.079254326228256,-3.678510332313402,-15.058868261000379,-6.846102333100877,7.028630362908134,-43.8621002766296,6.1042403775094956,-5.590353319114311,-44.47376348523095,4.956419414716244,1.3351804067138207,-56.92168618883001,-2.849979704804531,0.6774762462693754,-106.4440852409356,-0.8773188904308743,2.44156915632606,-56.449421308668136,-0.4252097773170715,8.76892220122131,-41.60648470001073,-1.290219805413528,0.4994080901846614,-1.0053312698319201,-4.984386308051635,0.06559630279811089,0.16434337920181905,-4.788789322534769,16.32912956982851,-66.54119628978769,-5.050686370587872,2.018978396964042,-108.09214665686594,-4.092146560263286,-1.5195151342243096,-54.59917443503154,-23.30960082892716,17.705230712016395,-5.847499847123374,8.02397948708088,2.67999476338999,-70.00735594039999,-6.957229019580937,7.9832127919023215,-101.58258460015928,-1.7507000380527413,-4.877885082569482,-44.55399495139704
40.23180875813834,-63.727074857935534,-28.25615518233649,30.20786087104816,-2.8243743650462823,-14.629609720947185,-6.909289628603529,7.085273547704051,-42.62912846072141,6.124405392912139,-5.614177511842849,-44.105899522583826,4.961673357172806,1.2150302715414247,-57.745653419489656,-2.8492369073060906,0.6811934036214248,-104.55837495041973,-0.8688838235723594,2.428203963722965,-57.1975277009011,-0.4566325988136526,8.210291239605231,-40.17990471132773,-1.2925239437080847,0.4994913040193378,-2.114580197496681,-5.01422958953363,0.06505570004841553,-0.14201856599339333,-4.839513361953091,15.712012542421673,-64.48805148390609,-5.050905189856598,2.0169593758670277,-108.00056558576301,-4.090953768059055,-1.5216918532816073,-54.5665463694782,-23.309600830078125,17.705230712890625,-5.847499847412109,8.071076602016747,2.6934584881607737,-67.28390519874725,-6.957286301495432,7.982794332981779,-101.57157661505542,-1.7776543721823301,-4.853768852981528,-45.34393018559819
40.17835689599874,-63.67630757995225,-28.050017718484938,30.33878965563695,-1.816295447646291,-14.11758597098081,-6.923415673440452,7.096876747828924,-42.3632508995823,6.303301532161035,-5.774445384940899,-41.259937607161994,4.9995773747675685,1.7703080086256353,-58.11454901594991,-2.849730475285893,0.6791588652372227,-105.59210875078593,-0.8930702915440802,2.4646704946196687,-55.12716471321483,-0.44485570125960633,8.364303943961854,-41.30790302791411,-1.2941984437336138,0.4995785555851938,-2.9185675865315686,-4.804036532135719,0.07100629748498606,2.016132761609032,-4.810149348879737,16.103999189911928,-65.34973452209263,-5.0510035431891795,2.013312357227305,-107.83470430165784,-4.1278805035829516,-1.4665055022164253,-55.438675863134776,-23.309600830078125,17.705230712890625,-5.847499847412109,8.094680088177684,3.0094547774572318,-66.2814919383395,-6.9708241527692545,7.907784522070572,-99.884201446635,-1.8466863119361991,-4.7724359681225845,-47.67649014793802
40.526222879860796,-63.948645114812315,-29.29541886941411,30.25881363615651,-2.408402138219511,-14.417523705028753,-6.91700753757624,7.0921124293584965,-42.47963370065866,6.242401939731471,-5.717564895652197,-42.2470289979761,4.998186813482594,2.0220002554751706,-57.270723760270045,-2.849822821103617,0.6786598440538597,-105.85057394187659,-0.8895682635513005,2.4582598665622903,-55.468899783121415,-0.43765082932314425,8.59189780164216,-40.58991080739483,-1.2940437786119006,0.49960338298899615,-2.846471503068721,-4.911879995513208,0.06792897490719438,0.9087548171666627,-4.8069029160508,16.183445450146802,-64.72809116996157,-5.051357494189163,2.0136989079956633,-107.85288823978448,-4.115601075867418,-1.4849316832507355,-55.148073156683985,-23.309600830078125,17.705230712890625,-5.847499847412109,8.083631323826253,2.9280417202015125,-66.76304859502922,-6.966390882846553,7.932519824856329,-100.44070595308592,-1.8229387157443666,-4.8012648446476796,-46.860254817735246
40.565179771417604,-64.00231870615629,-29.473828033737327,30.273430316043914,-2.3335570020929803,-14.380854618121402,-6.944945418199946,7.1150397679096296,-41.953689811490605,6.292467385346474,-5.757957482334357,-41.48136282573142,4.997842310821807,2.5512423380043985,-55.839458602639894,-2.849564191885851,0.6805158123010621,-104.91455325416098,-0.8995335777711242,2.4696837229271513,-54.75112758609846,-0.4454262033992504,8.473339646623554,-40.03547138168803,-1.2946476356032153,0.49966870166262134,-3.1389223099066794,-4.943558642819803,0.06825987834857788,0.5833185096509965,-4.807036955111265,16.234520296295,-63.96055130843704,-5.051536970743073,2.010792448092422,-107.71995233810694,-4.110726842935065,-1.4906242211676288,-55.049578824477365,-23.309600830078125,17.705230712890625,-5.847499847412109,8.081444112255438,2.9771405422486743,-66.89735001555236,-6.9671797193790175,7.926377634710268,-100.30193483931899,-1.8198940094004528,-4.80491355021534,-46.75614604406219
40.99006495948899,-64.37121035483598,-31.056990186783406,30.234036280764958,-2.6258516039479485,-14.528915772001339,-6.950375462668574,7.11446696823711,-41.89665582399182,6.389649637016629,-5.823993038933453,-40.08285702736496,5.004968087279784,3.6832261780778732,-53.35350883464746,-2.8490674254408725,0.6838598710183625,-103.22960042965414,-0.949462333442264,2.5245111368875723,-51.223505020830835,-0.4457246891049366,8.665016007245695,-38.029726728563745,-1.2961972879344612,0.499877439020881,-3.892592207154114,-5.096418360037937,0.07214247374913929,-0.989384247898032,-4.804979215160023,16.391154670464594,-62.21958002528904,-5.053199952908046,2.0018498454609075,-107.3062349835591,-4.074584870813575,-1.540524381873783,-54.23958004347225,-23.309600713721785,17.705230624510357,-5.84749981822265,8.09537779695755,2.939530489523888,-66.18169814564295,-6.970133602517791,7.904150821721592,-99.80449926951871,-1.8312223239145882,-4.791832621979953,-47.13595627875517
40.77992327788243,-64.16360644619664,-30.23092528007115,30.182361930607318,-2.9407476736421505,-14.685919383459035,-6.943358050551758,7.108406511040484,-42.031986847786285,6.269968240138712,-5.7405018851530665,-41.82077947293983,4.986635179563304,2.933792438265389,-54.449234852764796,-2.849628838903828,0.6803619989483616,-104.99647786933228,-0.9143093979007592,2.4856742884496774,-53.71272326973501,-0.43500584334784326,8.756496176002004,-39.520734414633324,-1.295105061957021,0.4998018100910787,-3.3661974409348847,-5.037788604429617,0.0717318773532447,-0.3873633915074376,-4.799089678554705,16.36505313174964,-63.74863409189885,-5.052102449047243,2.0109356699428727,-107.72329017845654,-4.095333842629518,-1.512322422053696,-54.70024125615119,-23.309600696865107,17.705230611706554,-5.847499813993945,8.078259849180084,2.938578192790812,-66.9923014328468,-6.966184260058332,7.932650873860988,-100.4435188729842,-1.8147634170094278,-4.810605480860704,-46.58861610727376
40.78687136489448,-64.16335826288538,-30.247117060196675,30.170104017144098,-3.0393350477798755,-14.736143527826423,-6.926202165974994,7.097253360993973,-42.328892912873734,6.245740927963706,-5.713904196825822,-42.24110292326955,4.9955685302575015,2.739656501117591,-55.24001263275416,-2.849609273223395,0.6807026569306273,-104.82573096553661,-0.9094763771384209,2.478850751036027,-54.10920599377972,-0.43158504002143183,8.817142383987456,-39.66561015822978,-1.2944148558292021,0.49973866912730713,-3.03258868787549,-5.02914277670135,0.07028627166929845,-0.2982731357808854,-4.797338563798494,16.37661797194597,-63.94341346366011,-5.051782869399764,2.0114110751936667,-107.7451651884663,-4.097470346596969,-1.5090157192290863,-54.751924923607056,-23.309600734106308,17.70523063999377,-5.847499823336359,8.073075942365907,2.939767550543088,-67.29837814901613,-6.964291744848498,7.940436472272185,-100.62004900529413,-1.8040839830792728,-4.821732025314052,-46.2512896160185
36.886602382027746,-62.63750911352071,-18.52673918653459,30.157473759696476,-2.8611853592141525,-14.636149942215612,-8.104168060809629,7.801029774651997,-22.151049262479088,8.133219835914787,-6.479907311057648,-17.121500392911788,4.395450265581189,3.4711344310092653,-30.00153714792397,-2.8575666127245807,0.7474213085516823,-70.07747284435158,-1.0942165917306506,2.6327460770157245,-42.598347358888894,-0.5042869473943405,7.892074717033109,-33.432898265865354,-1.3440153293134518,0.5327406886151297,-33.56015035867297,-6.797257097513052,0.7395377915256528,-20.413858316742015,-5.025626175638213,14.928919607462033,-42.27283118413341,-4.985904708261217,1.2526067495340183,-72.17973912369015,-3.5980381327859137,-1.990919962342186,-45.585074770871486,-23.30960042266699,17.705230403557533,-5.847499745190528,8.718875547617259,5.042164911797163,-45.21761811191379,-6.80493825071289,6.798551172308027,-74.32386286762704,-1.595371348615078,-4.925120701215426,-41.24737645447295
31.045069886191484,-60.95174297999968,-1.2921359377379908,30.394538951557152,-0.8322819134237457,-13.598352090440693,-8.718063162857238,8.023536566938338,-12.55423078755503,9.315201945993183,-6.824605602460033,-2.05147416012452,3.6299575101089685,3.067696831777633,-3.901948620124772,-2.924484969638322,0.818782590957062,-18.59684839186128,-1.5453894860055646,2.9105754928538152,-16.775058513708046,-0.5899065694641714,8.818687983405715,-7.970947568564452,-1.3082732653050109,0.5017221975145616,-9.795749669701124,-6.062913433224266,0.1899263529082169,-11.040424586695643,-5.218828694405718,16.334595574022003,-4.977671246379142,-4.101822299210907,0.3746900277757604,-11.980515549460655,-1.5198647078905336,-3.2251935261820184,-13.096913685163045,-23.309598514068593,17.705228953759153,-5.847499266407607,10.70705305351715,13.729937779994007,7.0392026174563,-5.279382604230152,5.058619213704508,-19.48527208318641,-0.43192772032165366,-5.556269709361548,-11.484231665353352
31.389823673779624,-60.89154017643066,-2.1751019276761503,30.52154468709848,-0.08668517250283309,-13.228580349412653,-8.763366123583197,8.032812664314864,-11.880134009782786,9.617832427881549,-6.871752652266056,1.6766130663972592,3.6783488374782274,3.0156555723022365,-5.591076951210647,-2.92575887036115,0.8190354234886021,-18.013446894326616,-1.591768781592674,2.9290825272722882,-14.354860025881994,-0.5925660219278682,8.422405702552505,-10.8105381084017,-1.306887606445655,0.501485997816098,-9.111183131831952,-5.910307988888063,0.16318270755690295,-9.44129421085209,-5.211086914530157,16.129090105400937,-7.61618097257946,-4.109402804971366,0.3795626561432877,-12.4150486597174,-1.4433270272166774,-3.240846074695995,-12.074438630788796,-23.309598279450373,17.705228775537773,-5.847499207552563,10.734231685637324,13.50943684372056,7.236850856031643,-5.26034310342765,5.044580349170298,-18.944284391870298,-0.37788529177777874,-5.56807401329664,-10.272443357328815
31.628048375545028,-60.91149922190218,-2.8218158866392837,30.645406617348375,0.9022711792978511,-12.725870043758194,-8.705336978116904,8.017118048009442,-12.773563290476034,9.802727803354475,-6.865229081240252,3.9273067752361226,3.736681244547806,3.239325248494871,-7.145858197163692,-2.923854726429778,0.8180245513465124,-19.12469360152045,-1.5981088778049104,2.9320334640718637,-14.024051599080353,-0.5848517516468144,8.570091137191199,-10.994461487896256,-1.308556876596244,0.5017644398871828,-9.929301414924808,-5.90414419549269,0.16152758319548052,-9.376527571894622,-5.2205661779296575,15.829003046394703,-8.842143980011748,-4.125430987606177,0.3852001162811517,-13.183471138767482,-1.5037148027509049,-3.22625766776572,-12.895335070165805,-23.30959841075223,17.705228875271583,-5.847499240491092,10.634916772157958,12.848430797880381,4.690833360081108,-5.278956697420609,5.059139104760977,-19.51807714104224,-0.40006382867100826,-5.559885637058054,-10.793793362326529
32.011177140849426,-60.87820355764161,-3.805245703986896,30.721573544455687,1.4312582024980829,-12.459392412462337,-8.498613916026208,7.960620478219862,-15.926050529232855,10.024752949861755,-6.903402016953977,6.649105358378019,3.777087889599466,2.513911236340018,-9.579580293107286,-2.932527156760889,0.8219938500646936,-14.24422092349225,-1.7264957803207757,2.967864544060244,-7.6000042142912045,-0.5930530433708622,8.057014954365226,-13.801226471527379,-1.3019454724155395,0.5006605835479837,-6.694990013860554,-5.552864382483552,0.1042112810782529,-5.700793365504764,-5.218455809353551,15.746053284630346,-9.680855658442287,-4.075252655685695,0.3674436608846616,-10.7360682885026,-1.2999848845474558,-3.281128262940156,-10.112567246965314,-23.309599198983523,17.705229473977834,-5.847499438229898,10.792818734839784,12.281191266788444,7.38061196780105,-5.305145125721626,5.041358692611662,-19.865099527128876,-0.22911689468486834,-5.6008188519852595,-6.927666314211214
33.55602622610601,-61.37347870384529,-8.268541447344628,30.671109599479923,1.25098262760827,-12.54375694990602,-8.365421575470583,7.936546266892422,-17.877105788952736,9.418878753987597,-6.839145261009911,-0.7726952897923388,4.09804876166746,3.1490615090866676,-19.584320775055197,-2.9151278209546656,0.8119176206112522,-24.462121529069012,-1.662579819488089,2.9410638079235345,-10.868422245990427,-0.5278646116474205,8.332564784626047,-23.86677919622497,-1.306043841593736,0.5016183065928297,-8.753852314591224,-5.372981817703863,0.08961186091835475,-3.8429615240319923,-5.169765332614307,15.357848987015563,-18.617143213046095,-4.225767702460716,0.4285742618518917,-18.167547458519063,-1.7192776908414393,-3.180271007562572,-15.784236945577073,-23.309599346234492,17.705229585814262,-5.847499475171126,10.141131377114085,8.90394009844157,-8.117950354389682,-5.500005239416148,5.185091878026841,-25.42437093770929,-0.31680344779128,-5.553485269683282,-9.054273528668515
34.23094403310743,-61.461722646654955,-10.13134239021014,30.635342712479805,0.8462753848196624,-12.753168873010468,-8.415561129074119,7.946910836502025,-17.136124218392773,9.474892969300567,-6.804131767745349,-0.09968373932410604,4.161489368794626,3.1996601467609325,-21.83045931842061,-2.9034885997319635,0.8033668474039181,-31.967802606699976,-1.58594156618776,2.910015297189121,-14.951193856408192,-0.506630831286301,8.581775491076396,-26.080572200594375,-1.3195538624692267,0.5083001935981598,-16.245150410924374,-5.721314853847938,0.18569212112806027,-7.6601753782787645,-5.126612630690124,15.628410346513078,-21.740685225102084,-4.373625357448076,0.506970149903414,-25.901196443640355,-2.0100788042273003,-3.0515040891041565,-20.016703237325203,-23.309597993644132,17.705228558429123,-5.8474991358572925,9.938136614536068,8.93127532454991,-12.579881337250145,-5.581964153390557,5.277732966642512,-28.202250686692746,-0.4515164378219111,-5.512183524404698,-12.25508681621811
33.82153501613259,-61.36608815554316,-8.949549710215699,30.45479118908644,0.021142305372228058,-13.152258206008282,-8.552064804979361,7.9780871099417405,-15.07653056962206,9.507131396170218,-6.834150692211952,0.2813376478347858,3.9951781223408562,3.1306933274192916,-16.416534282120228,-2.9135142609069375,0.8086642448295688,-26.195280753981635,-1.606338452628801,2.929309530451913,-13.656762953747611,-0.5470498316562772,9.234868540143424,-12.446348020056005,-1.311317071877267,0.5028584952635771,-11.433151609340525,-5.884311692580928,0.1757941526039685,-9.228885513883977,-5.146581141366337,16.407608461048056,-13.025994581802815,-4.1819776513699995,0.420326843073613,-16.17428987968364,-1.6649890424730562,-3.1806677439506155,-15.104282595418008,-23.309597441388725,17.705228138960017,-5.847498997316312,10.140299593940144,11.376265524869096,-6.7069843288350475,-5.140105628445468,5.0507103235269435,-16.774022484955157,-0.26019208182001974,-5.567216956098494,-7.811138882403805
33.60708792857302,-61.0717448677852,-8.169069962334632,30.895453396940233,2.739013721764723,-11.797697065029649,-8.467980662541464,7.963331472153169,-16.34030769471254,10.402108096943982,-6.865014760073072,11.21948167775142,3.9998399122830075,2.5565829532856323,-17.03390999507938,-2.9277678623880887,0.8173726886925862,-17.596245292786886,-1.7850930159999718,2.9755374729166095,-4.792343835301425,-0.5499038344622604,8.763131387988327,-15.859475559116799,-1.30566510852648,0.5009267363811764,-8.486800158839436,-5.402576837450213,0.08023807921819845,-4.134219888979253,-5.115229602047437,16.646741954059404,-14.419177231981426,-4.074544704782527,0.37344832785450355,-10.792530878885396,-1.3199535730550331,-3.2796569788735184,-10.37294486854274,-23.309597845978388,17.705228446264865,-5.84749909881382,10.389963813453196,10.397732782861041,-2.118888955189491,-4.956051658282596,4.939260916335279,-11.744619096391808,-0.08700753634186836,-5.627002257892745,-3.7328454878594295
32.0138503802344,-60.81454193321955,-3.768689285923381,30.80161968817294,1.7790316364200018,-12.291658106312584,-8.28955562259833,7.892810105801966,-19.15357016371505,10.445677444096486,-6.837100009218216,11.749807618742038,3.86107199581639,1.9646721801095202,-13.230953265536177,-2.9360932451153614,0.8227315916854097,-12.444324584387257,-1.7712896192973009,2.977683468362067,-5.427251616208931,-0.5878316694585342,8.022622581693774,-15.075532947554704,-1.3033088258702867,0.5005964170025146,-7.340800860440957,-5.33459333215122,0.0770592504037192,-3.43567553591216,-5.132620872001262,16.72315746176392,-11.836860671523983,-4.007754151204781,0.3562374314746938,-7.662367050689997,-1.2232610311224061,-3.3007226811104813,-9.073867001148153,-23.309600614498155,17.705230549149263,-5.847499793330328,10.709661895793195,11.308996008160673,4.863998359246786,-4.928578660334319,4.9296769109433765,-11.098789446860689,-0.20849259335586545,-5.616611839838665,-6.40132422864472
32.66822550423727,-60.89759315585576,-5.5552789858373535,30.992258630304327,3.62476978338367,-11.343948455835392,-8.52821537201352,7.985593707967938,-15.393836852488953,10.540745955997695,-6.853673060401687,12.907778471977535,3.90629654033904,2.853890230646353,-13.195312684007936,-2.934354597746091,0.8220009665412831,-13.46483505091091,-1.7970469807020248,2.977398407850227,-4.213735199880409,-0.5530449042837055,8.702835480683849,-15.808103374421306,-1.3030123572261711,0.500358197333867,-7.175872062153948,-5.432467801891424,0.08376508948910656,-4.44323109857164,-5.140426788897722,16.458126401866643,-13.217424915887769,-4.030620295719039,0.35853991541449853,-8.691160636716592,-1.3107308103547501,-3.2837228965271406,-10.24210836665184,-23.309599997154645,17.705230080248956,-5.847499638460119,10.513058262117177,10.90815686336168,0.6324376698581505,-5.032690796816822,4.952848576999454,-13.465499187130328,-0.1445362081200439,-5.6223039550650205,-4.997076550163122
32.84912325985699,-60.92185196993027,-6.050565873318223,31.00997688582048,3.8819453950576768,-11.210168020244605,-8.637970578418871,8.009945200155784,-13.74910168143873,10.614140754474027,-6.835877294616398,13.814854521115974,3.940002571859159,3.2031463528318183,-13.732467686201987,-2.9334744128567145,0.8213435434493873,-14.030594254471966,-1.8230167469416807,2.979725027778258,-2.978555558953796,-0.5325510734006891,9.165655392809047,-15.703940520046347,-1.3037521892184751,0.5004443500613434,-7.534696805213082,-5.446338148946206,0.08387792193621361,-4.585345762324173,-5.1237848011525235,16.62667833499076,-13.832989752468613,-4.040012722260442,0.36575373418400076,-9.237788987691495,-1.3231644705072991,-3.2804909537006886,-10.413067940692606,-23.309600110561703,17.705230166381348,-5.847499666910806,10.444270607512603,10.55264272784915,-1.0546518900202813,-5.019735709153759,4.94956994277212,-13.172409336715388,-0.17110933034028936,-5.618104234857765,-5.587897980899528
32.901617004990065,-60.92015573859946,-6.184547846831012,31.123413301864872,4.9858776538741765,-10.64300200191279,-8.74341909995332,8.037399744580267,-12.155571206610851,10.874885915426955,-6.766205032119347,17.053835285019282,4.018555138900581,4.031693313461739,-14.707057303281328,-2.9361379351479826,0.8232527505393921,-12.337857065099044,-1.8774324030991487,2.9824704582334327,-0.3936298744245386,-0.47374878138321674,9.997762853774411,-19.6730052653964,-1.3036981780545112,0.5004327085154823,-7.508327326581261,-5.359150397390087,0.07682810065421171,-3.6866703347367356,-5.094894214422049,16.781993837018423,-16.003191355636815,-4.025032080652386,0.35649923459283495,-8.424311047526965,-1.2617415802867193,-3.2943031853588565,-9.585607020783934,-23.309598721119663,17.705229110996335,-5.847499318353475,10.394435715823029,9.933530487105827,-2.4837684677319847,-4.985946767125154,4.9385460457965635,-12.38225027951157,-0.06779988708543465,-5.62886760671704,-3.313302187931995
32.9616007329937,-60.92640614495634,-6.346424727968173,31.13986226474092,5.182033937801763,-10.54153090483061,-8.521629863954974,7.9811033801406275,-15.503102973352611,10.761591745696293,-6.799212019620004,15.638164682612722,4.012192178710253,3.3131710511738017,-15.75151735714826,-2.938392131198571,0.8237191727706795,-11.195596281125223,-1.8740983945716456,2.9826866563442582,-0.5509182654523264,-0.4812503193861765,9.772196678550452,-20.21437777627239,-1.3020429255144381,0.5002101782534459,-6.704971100537943,-5.337383123012018,0.07501510299463708,-3.462330497879738,-5.0967049046644215,16.660085624059064,-16.77280585865584,-4.008492945879328,0.3540237020612262,-7.673478301730653,-1.2074237467564795,-3.303992585155856,-8.861698189152424,-23.309599431668858,17.705229650705064,-5.847499496603733,10.341909392627004,9.846631795932009,-3.6033370078732,-4.978906588516391,4.935320770290925,-12.213605595536508,-0.02499329880794794,-5.631223799334253,-2.3746603930095467
33.78217199878065,-61.04833469020141,-8.597874390384414,31.08236508115916,4.571264369899654,-10.856260250687846,-8.773196405077478,8.049825732994153,-11.692304515343174,10.658384727858627,-6.827794142403104,14.35506001440661,3.9000798678023427,3.040786301629822,-12.561108400786486,-2.9374119923669415,0.823529802899972,-11.690412533309338,-1.9370669593487815,2.981795533553247,2.4324601013965745,-0.5188841805315417,9.442408875865,-15.90324936584241,-1.302421150206615,0.5002610674142829,-6.888759989226182,-5.274834344322447,0.07195069023903425,-2.8192134309153727,-5.082408607235874,17.259297863402573,-13.559847338516827,-4.013837958193326,0.3548510508838835,-7.916234651329661,-1.1732269736893166,-3.3094190918081976,-8.407445044610228,-23.30959413660146,17.70522562874014,-5.8474981682710405,10.344193895646267,10.833928507748816,-3.0557412861021813,-4.803684408969617,4.902744269262354,-8.255798996429917,-0.0028096422155689947,-5.632103033852241,-1.8889612170134837
34.512496129723004,-61.18160820253823,-10.623248150488564,31.068740202509822,4.408588186790738,-10.94037572800583,-8.696738592354853,8.032995910982354,-12.837529587109197,10.491705167266764,-6.872265029598809,12.286269403246578,4.0112274481965065,3.1379311014850035,-16.020667987915726,-2.934964109003414,0.8227765251601717,-12.977031453878698,-1.9445854686261168,2.9802559380526112,2.788867873040351,-0.44911214607003463,10.581564268052938,-19.296331889892233,-1.305121824097675,0.5006781697309932,-8.208781847562657,-5.270944246642211,0.07208310108788565,-2.779673800941586,-5.014790378000367,17.900276546825314,-16.165902706439613,-4.035304207884182,0.35812697414658984,-8.894349785589611,-1.1806768305620863,-3.3091053220216735,-8.504826178458492,-23.30959316795786,17.705224892989605,-5.847497925274845,10.265106588405914,11.015222989260435,-4.605722690887283,-4.841516725105304,4.910560845466944,-9.115483185391446,-0.00320476417870344,-5.63352222803619,-1.8961706314231188
34.61404638230643,-61.20194213270125,-10.906951139330044,30.988629069957256,3.577386027428289,-11.3683853982732,-8.593181619946744,8.00593119660322,-14.400623697659716,10.325170555806086,-6.903342531917998,10.257396747221897,4.064778188975011,3.280557638373028,-17.527203009503786,-2.9364203186335684,0.8230925996727535,-12.238472545439901,-1.8939573179914098,2.981902670946246,0.3910000041228367,-0.4456907144896497,10.461523978589025,-21.02952427977342,-1.303135109610289,0.500424657998976,-7.246947632185539,-5.323428915976033,0.07447364519928554,-3.3190733260236844,-5.077353791708379,16.84541111753681,-17.50000321131232,-4.024593502639398,0.35662625899505557,-8.40917729939391,-1.1480751181601119,-3.3142582884285576,-8.071973887740098,-23.30959715475837,17.705227921235508,-5.847498925412868,10.267418798936422,9.2550920260076,-5.394436791971122,-4.948206024370409,4.930696539494971,-11.526633685879192,0.015248936718406802,-5.634447860227779,-1.4920427905717792
35.07717307843301,-61.375367537289,-12.271777410167171,30.899954823708118,2.6162951941370034,-11.86418611354615,-8.445247991503415,7.966632034645325,-16.636189476241466,10.12625086747263,-6.926790287441784,7.848595804497371,4.1005644034060404,2.8961229754547215,-19.501189726087624,-2.9305663292597535,0.8214453395900299,-15.286795993877277,-1.8094541164180382,2.9797709845873355,-3.6240408820348495,-0.4549084522697783,9.88160274228141,-24.45441289696463,-1.314486849029563,0.5029605379126617,-12.876554001333876,-5.557988008368402,0.09553989417654508,-5.740951896222371,-5.130072208574363,15.863144211407025,-19.352094702156165,-4.104352783715136,0.37564964090728964,-12.124411981560439,-1.5195107221996222,-3.2418892058717432,-13.036546024251289,-23.3095975430158,17.70522821614699,-5.847499022811524,10.26962967263403,9.229613062334774,-5.429955905972923,-5.0819881796099216,4.967994898592022,-14.63831630806912,-0.011437397782412937,-5.627868504526081,-2.095072918473527
33.857317312638656,-61.05474468112289,-8.800005578638968,31.010230594646703,3.7705208675800246,-11.269553979837033,-8.630523204410364,8.018178126473634,-13.827730870978142,10.422543693420696,-6.885226213127121,11.444191129523011,3.954753816551829,2.665795504605232,-15.016120955061343,-2.9358848279121754,0.8232300051763811,-12.462527494115967,-1.8766866469042376,2.9828024240631765,-0.42682915246775693,-0.48853344884946787,9.695183262780668,-19.472446815078527,-1.302736843391847,0.5003281270637168,-7.044061966881604,-5.32717492477617,0.07553317403059649,-3.3580545845271685,-5.04927445765461,17.577633401785278,-14.833997191537955,-4.026491883736967,0.35671480899257774,-8.490823141321686,-1.3008787702921176,-3.2882540222062406,-10.10380311892311,-23.30959772776353,17.705228356473285,-5.847499069158073,10.433188119202644,11.168869177865046,-0.9960710720340664,-4.870832613331943,4.913722602370643,-9.76668420196017,-0.12721055182685548,-5.625194502830633,-4.613117906734199
33.91186708698804,-61.060832848374005,-8.947729256504166,31.001294451957605,3.6809798113105088,-11.31560253741301,-8.63145570765844,8.01877213523838,-13.812635200600416,10.424935287532811,-6.884809410873954,11.473251374706383,3.9531966621125987,2.5634839411712615,-15.147549282655243,-2.935992647076978,0.8232523240206615,-12.408028138722281,-1.875986532885717,2.982810619235187,-0.45994507104681887,-0.4907959604341784,9.651153143268193,-19.423369781963814,-1.3027627942686757,0.500332342770481,-7.0566298912030785,-5.3263460109269065,0.07551290497090936,-3.3495359365567463,-5.046147984741003,17.6318560905722,-14.765969410102443,-4.026785805384621,0.35676423278983926,-8.504155883486597,-1.311050168244006,-3.286347022005343,-10.239480997496404,-23.309597616899524,17.705228272264492,-5.847499041346474,10.43452130123565,11.214898582737142,-0.9525807043462129,-4.866208890142245,4.912662074686967,-9.661334245428288,-0.12963461768905069,-5.624980557721444,-4.666206637546463
34.20579569827102,-61.121116692054294,-9.768954587679907,30.931563581802166,3.051402047293434,-11.638115162591367,-8.496691542617317,7.98032890928182,-15.858157307738786,10.278990131121539,-6.909561616076379,9.700463446389627,4.046687657806015,3.077788059504593,-17.28339428908024,-2.937834957514996,0.8236207001278002,-11.47655615740623,-1.8652051794310693,2.982449376493252,-0.9712927349350519,-0.46761421379325974,9.955631620501379,-21.244478107328963,-1.3019805941221807,0.5002062790181171,-6.6759659263292646,-5.370699317983444,0.07687883518776785,-3.8049144316449177,-5.089437074552276,16.654833260729603,-17.705675374039682,-4.013228235936499,0.3545898904543131,-7.887711228828611,-1.1755071417100902,-3.3089795629971177,-8.43809365107883,-23.30959919185463,17.705229468549742,-5.847499436443396,10.26395651430051,9.76755318573268,-5.215018445879014,-4.945265119609417,4.929189359710657,-11.454211178227116,-0.007468320517779313,-5.633169150963295,-1.9891046859430992
34.36149989683555,-61.155953998750746,-10.206708213634307,30.841150550471514,2.0901212727695775,-12.133614835253558,-8.521131812017153,7.989645608292452,-15.478500827649995,10.214578913814284,-6.924170578632031,8.908751432125426,4.02337780372597,2.7850963036545537,-17.04443316389095,-2.936489903192962,0.8233619902819501,-12.154858373264961,-1.8494676802196628,2.983214515475828,-1.715666572186477,-0.4680485221619461,9.925458895805667,-21.427883686223062,-1.3030929018555537,0.50042055039393,-7.220238627793252,-5.393208368696691,0.0783773111164488,-4.036611845570983,-5.079201426403704,16.906393319185373,-16.84642007328699,-4.020388449205322,0.3558470142420634,-8.213965392228527,-1.2277961624546245,-3.301060046354377,-9.131100720473473,-23.30959974327852,17.705229887393013,-5.847499574774963,10.423832920968385,10.618744850707245,-1.4977309529644165,-4.934485016655566,4.925413689458429,-11.203532288194587,-0.11169332008535665,-5.627331484994397,-4.2714360171980115
34.5549270557432,-61.18579287118157,-10.737612538591316,30.90569610063627,2.6858637677805337,-11.828132234108075,-8.493652368829403,7.980511875685509,-15.89980544683796,10.294056142120407,-6.910807018000681,9.875386295520794,4.1376389341507975,3.5087275388673267,-19.525137844628144,-2.93705986559555,0.8234662400506201,-11.870958268461198,-1.8673061271324565,2.983494535601703,-0.8713487202379199,-0.418760354908861,10.64157465894387,-24.683020579183022,-1.302691938524717,0.5003606531122972,-7.027491140560856,-5.397556729676305,0.07842514674242547,-4.081371533042341,-5.07927782377035,16.412080625735335,-20.951135712111718,-4.006744280907369,0.3541233670501493,-7.5993884834521,-1.1502955793850278,-3.3133700558770367,-8.102553398188581,-23.30960036045608,17.705230356180788,-5.847499729601632,10.256474716283353,9.091334498466502,-5.746527739740531,-5.027077189519761,4.945625698513481,-13.308943530520912,-0.005551192129167858,-5.633669124027607,-1.946632685816344
33.35523887046197,-60.98431481363528,-7.425862970040765,31.023351637591418,3.966185643308019,-11.16777112282079,-8.562994187267165,8.000413735111644,-14.847554048825243,10.494703377097801,-6.86713287126326,12.335344929935626,3.99897661970082,2.640410923705987,-16.510020978948685,-2.9373536863558924,0.8235159868782554,-11.72103344448654,-1.8539272157239588,2.9825767349191135,-1.5048016586555408,-0.4782313292835782,9.840829726058569,-20.192035287741206,-1.302750486252775,0.5002875510178525,-7.047494184398268,-5.337091359419705,0.07472610003036735,-3.459118699844207,-5.052524898901029,17.328507179622434,-16.50352144354881,-4.006906399796243,0.353722541337111,-7.601249640337199,-1.2227110995386539,-3.302459436868537,-9.062320786987675,-23.30959971588766,17.70522986658784,-5.847499567903622,10.382680113946703,10.564994230564531,-2.387098273889522,-4.9265157123553385,4.924295664206957,-11.025178051459616,-0.11493956319910595,-5.624963804418627,-4.346680676809899
33.019886912667964,-60.937567174836495,-6.508472864341596,31.00852801537571,3.8032674138645945,-11.251844029339173,-8.540962487718371,7.992676966007913,-15.187554910406682,10.500159509311104,-6.864102646421532,12.407858760180162,3.9927954314797627,2.658612257823697,-16.275691106791616,-2.937188490541517,0.8235088595581894,-11.801340858579433,-1.83941126920611,2.9826387433805968,-2.1924146820728794,-0.4921071384182741,9.530592436088936,-20.24033143384321,-1.3021166742639807,0.5002037355092808,-6.740307334820955,-5.364095293777028,0.0766165056130936,-3.737162967930735,-5.0718874140689145,17.09624707776117,-16.120492394177695,-4.006611998024626,0.35361721243286814,-7.587345159259842,-1.2352266402149976,-3.300383509737295,-9.228590380807344,-23.309600651524697,17.70523057726782,-5.847499802619684,10.452391662362135,10.723615370229913,-0.8688242425573387,-4.952760808066585,4.929897592883335,-11.621551860756172,-0.1470729431325063,-5.62384115982989,-5.048859259047729
33.08297911909403,-60.9282252969181,-6.666037821462882,30.988189957610665,3.5822028187279016,-11.365863251772183,-8.524889035882802,7.990240992878655,-15.42366613994474,10.48767990615239,-6.869672361408269,12.246341285741574,3.9836572909383547,2.5198871011907884,-16.225640291641056,-2.9369967701537463,0.823467796575983,-11.89872603114537,-1.8383931544916754,2.9825692229772893,-2.2407025490883306,-0.4931187666973162,9.558967554750373,-19.792936066225298,-1.3025644703295791,0.5002692402892093,-6.958084417928598,-5.371670382677341,0.0772959239870656,-3.815284745530274,-5.051002177204846,17.45999804385476,-15.592895106353156,-4.00671015146203,0.35367366442331283,-7.592097786732162,-1.2518571144764388,-3.297916203336154,-9.448901241033097,-23.30960058504575,17.705230526772727,-5.847499785942598,10.494526228665997,11.134460794569943,0.22550256967770196,-4.93935252634411,4.927211921969982,-11.317951122703775,-0.1798661507891955,-5.621154173372542,-5.768246222497019
33.70563470631231,-61.0383897067312,-8.388969196370658,30.960438411896785,3.30000602578114,-11.511077064199066,-8.591792095317526,8.007125622191348,-14.415343311137075,10.469475569296197,-6.870635386455831,12.03153316958552,3.9939944283238797,2.511324432825747,-16.576453585526313,-2.937499286914901,0.8235630970519141,-11.645124828241551,-1.8589707425991475,2.9828964968263345,-1.2659491629069881,-0.4808211999355824,9.766719653317287,-20.34062040379905,-1.3025080215119036,0.5002830001110913,-6.932076296131609,-5.353897749860135,0.07654210459319181,-3.6326122257411773,-5.052169942331012,17.397821256092822,-15.975667131573264,-4.012976666745214,0.3546780808039255,-7.877151824201128,-1.254291519897647,-3.296565737165171,-9.483456058049567,-23.30959937515997,17.705229607782154,-5.84749948242786,10.436195266055629,11.019041856075269,-1.028413911925109,-4.923988267843387,4.9239242330729835,-10.968565056244215,-0.1359452813041904,-5.624619997415486,-4.8050435768353745
34.25595546294476,-61.1322605213473,-9.909903937903785,30.864471312611858,2.316467732315894,-12.017331174300223,-8.530044873131368,7.992014285532832,-15.343863504065698,10.21589728408547,-6.92419627953864,8.924278559786604,4.017299353664655,2.770447489579397,-16.873283529112246,-2.936414235653456,0.823348530101435,-12.192921347715187,-1.852063042511554,2.983272869234493,-1.5927818659561261,-0.4650347202924197,9.969132424893687,-21.627465275732515,-1.302182718531574,0.5002699537876429,-6.775975250386193,-5.388774098231537,0.07817248004243597,-3.9910419328500235,-5.069668530113921,17.02863601937246,-16.981247386308517,-4.0141726294001945,0.3548100668079611,-7.9309088334895685,-1.217685061811416,-3.3027762716939435,-8.996587753951507,-23.309600108360936,17.705230164697888,-5.847499666360391,10.433826228116274,10.72985126794897,-1.2343177316846774,-4.930234806718457,4.924381854288302,-11.106340901827494,-0.12666019813610352,-5.62634577256288,-4.599283319232161
33.88987104551339,-61.05325318657654,-8.88388700885969,30.995438452797668,3.638618766380162,-11.336996142869154,-8.395750590321375,7.951852963602957,-17.38919932027437,10.227503970569867,-6.92293441476416,9.064053324458206,4.079111246053903,3.381972097442524,-17.810222608913918,-2.938734300336758,0.8238057359073325,-11.02011888980044,-1.8575323338510858,2.983120171835529,-1.334785765565098,-0.45751615059928225,10.079271478368263,-22.11033628360856,-1.300977738813589,0.5000574581894377,-6.187785982292986,-5.3810637897320275,0.07700493432072202,-3.9111782921485645,-5.113486457932973,16.20631365293698,-18.492620080244063,-4.0048090999991315,0.3532846352794934,-7.504943244360017,-1.1549919561726538,-3.313196369414332,-8.163547078939775,-23.30960079469331,17.705230686014325,-5.8474998385352706,10.25423233674168,8.970134647850076,-5.805904399031764,-5.009203989528368,4.941328954863854,-12.899689391825541,0.007235982416133932,-5.633873525342669,-1.6673870726204822
33.550539901822624,-61.0357998841538,-7.982360048718743,30.967125505412074,3.3584619229306996,-11.481179642234782,-8.553291145567318,7.996244981854029,-15.001596081948506,10.376955645958082,-6.890641643492221,10.89640117375556,4.000649829238298,2.883013590809508,-16.127847225395286,-2.936918201644159,0.8234391512546122,-11.9398478833698,-1.8508911413698137,2.982994566412042,-1.6486296824033082,-0.48283647468601537,9.69961743192728,-20.55375336418159,-1.3016329954866444,0.5001559966378063,-6.506986707018481,-5.364507014602485,0.07672687275414111,-3.7413867168285497,-5.085105228422165,16.93052379887058,-15.950192260702613,-4.009330456762294,0.35404029956806476,-7.710833484138377,-1.2306007421326597,-3.3002228009235055,-9.169133746420876,-23.309600099221438,17.70523015775648,-5.847499664067536,10.452583473951067,10.117504212956108,-1.1419292018351945,-4.928667107509582,4.924867367719109,-11.074789532120366,-0.12015210327155003,-5.626108255437386,-4.45802445912567
33.36731018681209,-60.96635839597878,-7.442404372902468,30.958522384760307,3.205954753687615,-11.560867299799886,-8.352905867340148,7.933967671658411,-18.06455956943021,10.23621787028708,-6.922209101364589,9.168113480617528,4.003430604059522,3.112910599170812,-15.802696630907944,-2.9356272051013867,0.8231880618398584,-12.591225559882371,-1.8406574046766613,2.9822764360169187,-2.134201313500811,-0.4729553954882371,9.894390292843463,-20.74224203620393,-1.3023402139562321,0.5002404282802297,-6.8483842254463125,-5.431126354257592,0.08146027781375681,-4.42744129107119,-5.077771553014763,16.981264925260632,-16.33806087859173,-4.018743119446223,0.3553780475332085,-8.137597580875935,-1.2582811964687544,-3.296269847595245,-9.53558082888576,-23.309600636485747,17.705230565844364,-5.847499798847032,10.450221756650608,11.064186799799373,-0.7156807825303483,-4.964507058549707,4.9327512109839375,-11.890784012848096,-0.16358580123631877,-5.623228752132128,-5.40918433827888
33.576310368322595,-60.99460900750414,-8.013473742735181,31.002891022694467,3.733278780966865,-11.287931710685996,-8.339138094441136,7.933223084465867,-18.25919072562082,10.259595313804125,-6.915991316665326,9.4572276286783,4.070028060835167,3.3157131036463845,-17.627348428352256,-2.9395781033827513,0.8239269558557558,-10.598395131850966,-1.8450905769057535,2.982734138426098,-1.9241933037071188,-0.4636555902892501,9.975841076172728,-21.836315612363688,-1.3007203465315647,0.5000433862737887,-6.063734463937327,-5.383194951916302,0.07723297159984815,-3.9331851585280866,-5.103298181911794,16.3848014459566,-18.281766376937693,-4.0018727952053865,0.3529179770126264,-7.372132442679104,-1.1557883719183082,-3.3129511030801275,-8.17431945373777,-23.309600792828814,17.705230684597762,-5.847499838067586,10.246099397213186,9.427922521148517,-5.785930646047326,-5.008967832220191,4.941916894609157,-12.897830043642161,0.007527874357506665,-5.633545399808846,-1.661311117209668
33.44578260025239,-60.984455918299716,-7.663580118876028,30.975495621258975,3.4339185350700303,-11.442388826795447,-8.313325260105268,7.924877150925278,-18.654013904765165,10.236702349442702,-6.919650024905914,9.179649982779162,4.0835365691929795,3.0511073109103393,-18.54201599301033,-2.9365844471926454,0.8233760586489512,-12.108126636158447,-1.8437451454191456,2.982963599398334,-1.9872841542949837,-0.4772686799251221,9.520803486329013,-23.235822061898393,-1.3018339789611804,0.5001614211530283,-6.602668823392208,-5.359931239870762,0.07582260086457135,-3.693862720298266,-5.070204795777198,16.700552385567196,-19.57684112442381,-4.0081264836056105,0.3537830212004338,-7.655792171800649,-1.203392954112864,-3.305884235507849,-8.805115018962509,-23.30960075728272,17.705230657598417,-5.847499829150363,10.203345287201682,10.32270863756886,-6.228491371055047,-5.053981686427021,4.95250483396111,-13.92490617735222,0.016170547837140847,-5.633272355401822,-1.47254535473788
33.75759222217923,-61.02526581840826,-8.5136222620004,30.956901050115412,3.269124682429153,-11.526726714254007,-8.344389909249577,7.935297230615574,-18.176490615825337,10.261626197106589,-6.915444417804683,9.48219131999219,4.097611321264358,3.117334711092694,-18.89631404476205,-2.937014235029645,0.8234538347566834,-11.891700599938472,-1.8511882205536982,2.9832576373079007,-1.6343832452321336,-0.45919690774048283,9.880186754827447,-23.558306749199577,-1.3020931048453,0.5001927864674041,-6.728036348133243,-5.376434040778413,0.076802716348536,-3.8636312333179923,-5.057629936451632,16.851428170711102,-19.878477173820023,-4.0031650521583115,0.35310564126150873,-7.431060220341449,-1.1991673882984069,-3.306731724799811,-8.748683356215617,-23.309600765080496,17.705230663520748,-5.8474998311066155,10.205549603838195,10.437540620699854,-6.15600610463054,-5.031074719266575,4.945949406414847,-13.396004941958566,-0.0022299443165600895,-5.632809544766014,-1.8747676766805896
33.46458126845272,-60.98313890037268,-7.710741241864416,30.897930688052014,2.6257125443701312,-11.858750397903837,-8.298286968213183,7.917529692291362,-18.897153049766064,10.21657282627814,-6.922325185167498,8.936804174494648,4.042325651044751,3.0041143438559534,-17.2759449937539,-2.935586132872069,0.8231750079289695,-12.612443867320726,-1.8313700856617547,2.982109337042997,-2.573740403672397,-0.47334532379922684,9.775213866736138,-21.729982261319154,-1.3031996666579064,0.500341407038727,-7.264404083314498,-5.446622400497574,0.08230810743936605,-4.5867992367887185,-5.072571575194499,16.94917274509333,-17.261591710215047,-4.021002946553786,0.3556119315073888,-8.239561071959034,-1.255218256241197,-3.297322270589244,-9.493739552854617,-23.309600736310948,17.705230641668116,-5.847499823889453,10.411713479774754,11.370022786119078,-1.3685045765079895,-4.993277124897449,4.938124706133019,-12.539922866339653,-0.1531653550384868,-5.624419042505454,-5.180146840349633
33.27173263048392,-60.95720905981014,-7.184142424054438,30.958900129635143,3.2714083446170665,-11.525960908687942,-8.298899959257525,7.919016431109125,-18.881399832750013,10.35100821507897,-6.896772030119755,10.576299543445307,4.072880356155628,2.9611567023214325,-18.359789677198187,-2.936689547012577,0.823382549744874,-12.055944839686099,-1.8491267574448673,2.98302688035269,-1.7324094187384003,-0.46897903113343076,9.71429627203863,-23.131606575966426,-1.3027326062961218,0.5002782496937163,-7.0378486920756975,-5.392982035831086,0.07832343392494745,-4.034342267404153,-5.061837098309303,16.879284329369217,-19.133527715367013,-4.00482227491065,0.35349640498825635,-7.5069599322455,-1.2284195835881606,-3.3014208598905936,-9.138500899386642,-23.309600729786297,17.70523063671221,-5.847499822252663,10.302313294499903,11.086045190101231,-3.8087329085592314,-5.023147384422271,4.944713794947573,-13.21844759003318,-0.06969458944735979,-5.628472270967585,-3.3528468894723606
32.910912555229686,-60.92210176318876,-6.209122542113797,30.946887529304195,3.206376051937539,-11.558483689898221,-8.289042973163136,7.913984209423685,-19.04145692816511,10.366423189969545,-6.890982437299864,10.771609177906424,4.023897061860926,2.8772048833742185,-16.89149625260987,-2.935886128825881,0.8232501295884036,-12.45950340571888,-1.8305277955116694,2.9819129703730956,-2.613937723105134,-0.4933437033788977,9.345972645918575,-21.644931859000703,-1.3030069341890773,0.500309307814615,-7.170663069810141,-5.425138315036815,0.08099757308665159,-4.36576687914526,-5.103885958029337,16.486836138634832,-17.224076701656873,-4.013874014807427,0.35463876145173906,-7.9164235094006195,-1.2561252828822709,-3.29668010926194,-9.506938573823351,-23.309600771093447,17.705230668087808,-5.847499832615068,10.432066711082012,10.90488167348608,-1.1585875479214383,-5.023034859002444,4.945664883741187,-13.22131760323368,-0.13737887246035071,-5.624492609942836,-4.836173015845803
32.94209853342661,-60.93641724020124,-6.302880385174097,30.979975327625795,3.517165444884564,-11.399022814992437,-8.303449853010015,7.91772385257361,-18.824599545048674,10.388059434309966,-6.886383723384448,11.037346029702489,4.0269254082932,2.8925615506098477,-16.961260505779343,-2.936781130293712,0.823425180690604,-12.006911340934883,-1.8312069832417601,2.9818630122623637,-2.582099825713881,-0.4951886446941936,9.326278738841797,-21.45051296058052,-1.3021322981626715,0.5002141493512918,-6.747895174101554,-5.4166265109404685,0.08037941742163912,-4.278114349540998,-5.105313287153812,16.49929129436348,-16.966500564949573,-4.013486679883933,0.3545676863563697,-7.898764877193184,-1.234036138560997,-3.3003551182330244,-9.21327766643015,-23.3096008023115,17.70523069180004,-5.847499840446502,10.462001017577926,10.67528699700494,-0.6376834943097937,-5.027834083030468,4.946776561259582,-13.331076816020964,-0.13593594866752676,-5.624660471943576,-4.804584343616941
32.1614724032844,-60.84034271662721,-4.1769417966941305,31.072050530550374,4.452656786341414,-10.91761709514205,-8.23235271544126,7.893608223315394,-19.91990888623071,10.655841308654121,-6.82556744782512,14.329639169336522,4.015935904401034,2.78267749847172,-16.787292279353384,-2.938826962658373,0.8238227398296515,-10.973336666126956,-1.8454449178603973,2.9825467588192884,-1.907698056154735,-0.5200056638443982,8.775433885373213,-21.495570899524296,-1.3002466007005506,0.5000069544651091,-5.8350912144954075,-5.358332143551813,0.07651974879264162,-3.6780875900302643,-5.11171701417849,16.331661823312267,-17.64419971323676,-4.0001429259156795,0.35274323677181635,-7.293872470341409,-1.1939952792070019,-3.3070209389581,-8.681288046071824,-23.3096008164164,17.705230702513663,-5.84749984398489,10.421646660056137,10.719628078240811,-1.4592920553422217,-5.056415548174318,4.953023663002705,-13.979673359244753,-0.12680938997494207,-5.623810426724955,-4.607085703030309
32.6116955263356,-60.90826786790555,-5.413609926714214,31.018040360828238,3.8976758792606967,-11.203344404818186,-8.307326755910388,7.919826344674479,-18.7609631653781,10.598647427182339,-6.837574436856113,13.62935570479208,4.022581994767047,2.8038919055061835,-16.96964707062247,-2.938347369887565,0.8237394501283216,-11.214765977299706,-1.848950053037116,2.9829094798533458,-1.741127175130838,-0.5000776142264748,9.156646691366346,-22.00346204228475,-1.3006549155029372,0.5000411961988971,-6.032370938512578,-5.3553994161763185,0.07620259397215114,-3.647786604888964,-5.098010252982542,16.489467944213335,-18.00416172851841,-3.9991232111874986,0.35264066535411737,-7.248112374251066,-1.1764672160087084,-3.3096067132032285,-8.449022265062439,-23.309600812874105,17.705230699823037,-5.847499843096264,10.405359428389367,10.613770566666068,-1.8551223008196385,-5.031072310576321,4.946583228582369,-13.399189032341617,-0.11868029660113272,-5.624230844308986,-4.429022906724112
32.99789364830644,-60.947049009524534,-6.458989190606024,30.994589133689953,3.6735220662545993,-11.31835990303163,-8.30546622190301,7.919380184569909,-18.788550169910312,10.47019005129423,-6.869384138685962,12.042157555045208,4.066334991379356,2.924478363833679,-18.205703048100137,-2.9392621335923432,0.8238890328869535,-10.75573528478067,-1.853568225863832,2.9831087934013087,-1.5224180976779877,-0.4794442819255876,9.485433584537189,-23.1164660170741,-1.300943521964352,0.5000718733106564,-6.172062398068601,-5.355626600100313,0.07573689557471677,-3.6497193289105274,-5.083240894916089,16.545189758137642,-19.349962772901325,-3.993108886815703,0.351886613537662,-6.976096744482095,-1.1835558450031225,-3.308382945226078,-8.543372349968127,-23.309600711026636,17.705230622463038,-5.84749981754656,10.271022860636299,10.413433843599488,-4.808115712535041,-5.008352055668972,4.9411748201533126,-12.880784446022767,-0.04318619426187435,-5.63046954176352,-2.7720268942380666
32.819532692881694,-60.895363343493266,-5.950386463066669,31.068290524542434,4.358976443186999,-10.966716112618307,-8.258006862290834,7.905792382238786,-19.507076404862243,10.449470975341756,-6.880230816053396,11.771822022171891,4.108671079432307,3.028816468033656,-19.414007158632362,-2.93782074947563,0.8236487067379004,-11.47951664444544,-1.8638410151901907,2.9840565076878094,-1.0349398165884969,-0.4710554298039492,9.362722794093042,-25.890958400065006,-1.300840548035938,0.5000480262154169,-6.1219906946256915,-5.3012820199317945,0.072188549688629,-3.090447332231778,-5.077714364584938,16.264731175374994,-22.386811344607054,-3.990778491918858,0.3514770932243846,-6.870142066311355,-1.189037288212274,-3.3084412039182802,-8.614091205357841,-23.309600813304023,17.705230700149556,-5.847499843204118,10.16376408266884,10.393182580340321,-7.093112225628322,-5.091083993837134,4.961931890970071,-14.775140734205225,0.07753159797936264,-5.633717902475363,-0.13058346310625515
32.36457291555259,-60.815062545111545,-4.69242250517124,31.144558107682933,5.1503849644687385,-10.559095146731918,-8.195446972615313,7.885000931959979,-20.468330731086258,10.525373340925416,-6.865775920861344,12.697136506101618,4.114720694570809,2.954367810322026,-19.75680507905612,-2.937307483114115,0.8235314568139442,-11.740191054612465,-1.8667104843490958,2.9842324252450565,-0.8990231412649307,-0.4744648001627281,9.17280213484631,-26.947787988861645,-1.3005701350246293,0.5000060097503514,-5.990489501631391,-5.2636574645726535,0.06995941146468282,-2.703395060811991,-5.079572257026097,16.124203187601296,-23.34034023683996,-3.989174500175257,0.35127343820155665,-6.797497971453927,-1.216483786842623,-3.304635653295961,-8.977152648210843,-23.309600830078125,17.705230712890625,-5.847499847412109,10.100387127131917,10.449982510682537,-8.378878667326644,-5.143357310054995,4.975345891676291,-15.973487998972024,0.15477805515240461,-5.634482732678094,1.5581081705384243
33.647165282482334,-61.02102293424128,-8.221976946044403,30.99381292826716,3.5702750003037322,-11.37323528728877,-8.357918129723721,7.939490168862992,-17.969786086346833,10.36445925960578,-6.897419853959176,10.732413339011934,4.119024966864128,3.2297860774640275,-19.40113996877085,-2.938891779405668,0.8238302422332825,-10.941583338935189,-1.8657872253900007,2.983962068449822,-0.942968189393512,-0.4407559979987291,10.094563843581113,-25.28198871232432,-1.3017360480986915,0.5001453102640417,-6.555293314164015,-5.341922005387293,0.07464670910127763,-3.508541906766655,-5.0817568874274555,16.26382497842808,-21.877199920936377,-3.993021976713874,0.3518557743595903,-6.972351357575033,-1.187626657015192,-3.308125383590887,-8.596483098948212,-23.309600813304023,17.705230700149556,-5.847499843204118,10.199654961118837,9.688897263534628,-6.673846802220915,-5.071174132494525,4.956877477506467,-14.319190781020893,0.04965681383746272,-5.633257522747454,-0.7402291549899991
32.98728239882962,-60.923376526886635,-6.412805129535277,31.036373689714857,4.038357686932304,-11.131667607742001,-8.288489920560341,7.915223206412858,-19.0416878411926,10.423831879864744,-6.886244978103768,11.456371226265277,4.12316776090971,3.3078995538287668,-19.393852373105393,-2.936905969605085,0.8234448793134068,-11.945220304279083,-1.8678725464020745,2.9839666672634637,-0.844343700266316,-0.46009759714346127,9.589893447991932,-26.010523542983474,-1.3012722144977114,0.5001009753872334,-6.331400282149218,-5.31336389059196,0.07295526306652805,-3.214771479096028,-5.070815582872151,16.3273969895546,-22.66361883569668,-3.9955246288541644,0.3521142859583446,-7.085268798670481,-1.1888690701953972,-3.308421594171506,-8.611921273904931,-23.309600813304023,17.705230700149556,-5.847499843204118,10.160169725434727,10.335663074438576,-7.169285851420801,-5.0978713157203845,4.963514184404541,-14.929778375832887,0.06546134167500109,-5.633607956764218,-0.3944542742204603
33.56237046794323,-61.00028650192777,-7.982025797469909,30.941525432209772,3.048597280344448,-11.641505699096973,-8.3161527534644,7.923189940367767,-18.62341564927592,10.270162428923623,-6.913397901319898,9.58694886773157,4.071025943896221,3.033663396798895,-18.16403592415895,-2.9372385189266224,0.8235000325894539,-11.777378513132128,-1.8428395716945918,2.9828365636357046,-2.030150005686116,-0.4581512247999472,9.98544208007437,-22.83027643261247,-1.3026654440834025,0.5002681335093909,-7.004895171329141,-5.400817718747118,0.07900926419807872,-4.1151361773874555,-5.060367664776766,16.9416553951147,-18.795981305002556,-4.007886021291112,0.35393648884492707,-7.645940446168376,-1.2381854612966483,-3.299381158963385,-9.269221224344353,-23.309600743074085,17.70523064680519,-5.847499825586066,10.323507059723322,10.841471648804443,-3.492558499551422,-5.010559204085389,4.941814159443088,-12.932069536815474,-0.07153159034805665,-5.6282801218434395,-3.393013039722187
33.875912458329054,-61.04620776645168,-8.840765723127458,30.850413190904646,2.158860402396145,-12.098691473899569,-8.369033786900411,7.942642761353817,-17.801986919641372,10.144515046029735,-6.935695870056767,8.058599713127517,4.02901431614326,2.742950642423577,-17.304337239474073,-2.9354828818958016,0.8231543521138788,-12.664862920073453,-1.8352681889480045,2.9824998213078264,-2.3884563427189183,-0.4693081148577864,9.834736286006342,-21.99108534635614,-1.302815333221048,0.5003010785454822,-7.07888793920314,-5.444075563815857,0.08204643622971948,-4.560485493549858,-5.064436909021106,17.064520143485993,-17.297468362379384,-4.020783954438718,0.35559611941348807,-8.229729318784543,-1.2421740205728369,-3.299560833460351,-9.320189036762052,-23.309600716730014,17.7052306267951,-5.847499818977329,10.410970978905931,11.375104444561662,-1.380095862677523,-4.972802511029799,4.933362357900962,-12.072913905553527,-0.15065284201167706,-5.624802009673799,-5.124715364183691
33.41916281732882,-60.96882499537433,-7.5803678462830995,30.96278211666507,3.2866002114873796,-11.518585004647518,-8.273064905057256,7.909143223447995,-19.284634951381257,10.271934080336525,-6.913061228015088,9.608450417912719,4.077009013343609,3.1417151244651693,-18.175530320940087,-2.9364842435158858,0.8233451877823338,-12.15948381888983,-1.8418652150291148,2.9827215453268336,-2.0764024202618336,-0.46140683859890375,9.891512884710167,-23.036897635251513,-1.3029443904738534,0.500308631405734,-7.140760227106778,-5.40854018135071,0.07961039036539212,-4.194693862604655,-5.067168444525991,16.820880157855886,-18.98190417248463,-4.01123934745029,0.3543869197159364,-7.797907875730444,-1.2523179375724245,-3.297278654857103,-9.456579072239583,-23.309600703332602,17.705230616618838,-5.847499815616425,10.311434093530533,10.991084741890155,-3.663909995805547,-5.022379758969077,4.944963535115291,-13.203834201521245,-0.06518453984995133,-5.628165616788545,-3.2542233587518985
33.521419749248,-60.98268499401099,-7.859505299114529,30.95256618454696,3.1759290857271436,-11.575654302937874,-8.295441677413859,7.917418380160042,-18.93666368274501,10.242414349585466,-6.918432972418061,9.249020932334531,4.070952224058889,3.1037080398791765,-18.041866908253567,-2.9363174925109923,0.8233097235829926,-12.243793412965893,-1.842670084738407,2.982788209789677,-2.0381346294430682,-0.4649566336783406,9.86572582729253,-22.56435932193061,-1.3028005423633766,0.5002842645591035,-7.070525337360696,-5.41483561084094,0.07995308805716042,-4.259405844088114,-5.056088466594044,17.04364805328892,-18.4430186741735,-4.0124412048712,0.35452034584720515,-7.852016920809989,-1.247354865988773,-3.2984769308632003,-9.389650196356458,-23.30960073658816,17.705230641878675,-5.847499823958993,10.326009514740331,11.20471895576371,-3.244654015340081,-5.009828072099984,4.941614997073304,-12.915262561976135,-0.08328862939347495,-5.627599569234398,-3.6505538841200718
33.44572320961851,-60.97457148184264,-7.654658098078974,30.942977073996218,3.096271824946283,-11.616311073847143,-8.261012610848553,7.904708872794314,-19.471825347611794,10.252399892857124,-6.9162813134380645,9.371397383811154,4.076124871425931,3.208704968710969,-18.02922422827834,-2.9360028477193585,0.8232513603001412,-12.402473186269944,-1.8399919884742644,2.9825865179193873,-2.165159772643434,-0.4599276826146605,9.93378037626077,-22.94992001543263,-1.3031202147289813,0.5003294887437196,-7.225741803805786,-5.420302323692767,0.0803196584164689,-4.315690221698118,-5.067064761329613,16.855413218950197,-18.71997784896776,-4.012751982579034,0.3545861818147559,-7.866433325902685,-1.2480738603307215,-3.297961807816515,-9.400230838192257,-23.30960069730218,17.705230612038328,-5.847499814103619,10.31192611166164,11.061574981084895,-3.6043388331665285,-5.0085092630155215,4.941462663348254,-12.886091941326933,-0.07904329270173108,-5.627599842754734,-3.557639911877583
32.811755997720475,-60.88859194317391,-5.923371331245525,31.02458737929382,3.9108023933689795,-11.197470367675189,-8.261379388468407,7.907098238333896,-19.454775311141834,10.448730276694933,-6.881837555681802,11.759077514906203,4.121780793174503,3.438215512924236,-19.11386571122668,-2.9366619342542526,0.8233899741686964,-12.06919313895628,-1.870275665385992,2.9839112447814693,-0.7308165176758414,-0.458179018484119,9.638251636001081,-25.95455675955056,-1.3018177687647619,0.5001664765346476,-6.5953086799420335,-5.317459401588169,0.07319728914077704,-3.25691103256401,-5.068998881087833,16.337928510607473,-22.798836020679047,-3.994012905182329,0.3519209888590312,-7.016839567095465,-1.1941446378499851,-3.3077085900008223,-8.681691222484238,-23.309600798134408,17.705230688627196,-5.847499839398633,10.170099515387053,10.754073708675199,-6.771786763820557,-5.094516197819874,4.9625370515644756,-14.852117682483513,0.04243161203761943,-5.632584426398032,-0.8985062744398867
33.56571402416147,-61.00005603310432,-7.99020281022069,30.98497944496044,3.478325819607026,-11.420626477974396,-8.333624712362642,7.9319490644736454,-18.34093197235261,10.38030565885575,-6.895976310716379,10.922147412685996,4.135896468021864,3.478166919360435,-19.51656568382664,-2.9373447937703205,0.8235120199765276,-11.725502201434505,-1.8724352094791643,2.9839505116485783,-0.6285198885492127,-0.4388791805455471,10.142974333729846,-25.20784601810722,-1.302148527603411,0.5001953713318059,-6.754739496486511,-5.3556772481634995,0.07540488081322037,-3.6500025741697133,-5.05715392099399,16.57287316298016,-22.23866291747952,-3.9921875785160803,0.35174504838627435,-6.934573246987611,-1.1783555555631278,-3.3097787392580345,-8.47307516209135,-23.309600804959604,17.705230693811405,-5.847499841110818,10.175193503899738,10.35678116707744,-6.827035336072627,-5.075056722856417,4.957145986404898,-14.403899853565587,0.023295542338413234,-5.633417700636417,-1.3162272306483356
32.369735699463,-60.8246980499195,-4.713942304020587,31.134983998957438,5.062265779926137,-10.604297396451887,-8.214852225784306,7.891259070887008,-20.17102133244084,10.52599282818633,-6.8652340608404065,12.705810190033752,4.112101398146765,3.2225080167304743,-19.177697920395453,-2.937712634396587,0.8236289019997857,-11.534227486984724,-1.8678408014985086,2.984216625212378,-0.8455621863999566,-0.47353973465245675,9.236377764598524,-26.545355031578413,-1.300582798686507,0.5000122735362793,-5.996684968484093,-5.268835569559679,0.07028283891501733,-2.7566654371414643,-5.083306818692007,16.09110356129226,-23.16056568775668,-3.9920446181781806,0.35161775715965304,-6.9271892670104105,-1.2076901336751575,-3.3058939734710826,-8.860745604482776,-23.309600830078125,17.705230712890625,-5.847499847412109,10.121096642549082,10.217740904050968,-8.095331854650178,-5.128327095372206,4.97139602618151,-15.628366260472491,0.1284874247887825,-5.634356820072421,0.9834368614343328
32.105969505947506,-60.804309311819004,-4.003474175344769,31.134944039947896,5.069963902801802,-10.600191135768627,-8.34899911075115,7.93205054022267,-18.124836215206322,10.594714667738293,-6.8489621796027755,13.552401515560689,4.13163343854727,3.512325747358194,-19.33358608198275,-2.935671689049691,0.8231485564955772,-12.573896677725877,-1.8799166332496529,2.9840270385428305,-0.27410181280071894,-0.45714078928025503,9.56232874558094,-26.84595025022666,-1.3022629445829095,0.5002332229114984,-6.811622849216054,-5.288896541108988,0.07155994369115194,-2.963049864879029,-5.08846537224001,15.980874795675721,-23.400791093485488,-4.000634485038918,0.3529030121592377,-7.3169690615706395,-1.215998922153025,-3.304345925996148,-8.971473302899948,-23.309600830078125,17.705230712890625,-5.847499847412109,10.09968299902825,9.802436853275744,-8.693684176651495,-5.114566270568379,4.968010911670198,-15.3136856281888,0.08100492745837902,-5.634106184495262,-0.0546788324877511
32.47137383973987,-60.82898495563548,-4.9834290690287535,31.10541468276488,4.732834680174145,-10.774386581803572,-8.19595711435574,7.885625383617465,-20.458585801850184,10.550377370181423,-6.860529481986926,13.002973874448406,4.120692905078749,2.837653902428414,-20.180687662386312,-2.936344511749378,0.823321117730179,-12.228569322425656,-1.8662641766732257,2.9842319661911616,-0.9201712120583322,-0.4558964894150128,9.545830876918233,-27.255417931867914,-1.3018219721229938,0.5001695178837945,-6.5974233894990455,-5.283662427148438,0.07104776013523954,-2.909120780042745,-5.047464584921474,16.549801747540606,-23.659615065527067,-3.9833467308510984,0.35068136680870376,-6.534778363673197,-1.2210992681743693,-3.303739129473657,-9.038787815495413,-23.309600830078125,17.705230712890625,-5.847499847412109,10.099345620475956,11.151295103903498,-7.995209328797568,-5.156792875716157,4.979263350694573,-16.28427027679377,0.1367073550337841,-5.634775692204122,1.163141945831933
32.31916049974416,-60.81301996430032,-4.571717412532366,31.134412756910507,5.052418225340802,-10.6094393575609,-8.200849023614525,7.8867334241047375,-20.385627662548206,10.548577765827352,-6.860549742864564,12.982009151773646,4.1160854085518,3.08682771538613,-19.56558859957679,-2.9370668965157036,0.8234732378905327,-11.864309941067752,-1.867374780135616,2.984205948642602,-0.8676838936153394,-0.4705387927227215,9.268611410316776,-26.85432000848572,-1.3009919247098767,0.5000723143874707,-6.19575475359036,-5.270038084051034,0.07036166225781741,-2.769055810051162,-5.073248293397436,16.212091307247185,-23.368032911065495,-3.9903119870545356,0.3514652486218281,-6.849206881046955,-1.2176029348213075,-3.30440322672159,-8.9921296044333,-23.309600830078125,17.705230712890625,-5.847499847412109,10.103040998019969,10.548181444055519,-8.278850620355925,-5.140744989227639,4.974696289763264,-15.913669104618194,0.13953398371306647,-5.634643483071742,1.2249394802310702
32.33327970172478,-60.81158416182344,-4.607631206891464,31.14696685490389,5.170993227881154,-10.548542000988967,-8.19743864705707,7.88585457508529,-20.436867985715622,10.488822235575826,-6.873210832515882,12.250593082929216,4.107389393719991,3.0153020477808266,-19.393928678007963,-2.9386077406392457,0.8237854289499034,-11.083702935075728,-1.8654336431979954,2.9842076308245327,-0.9594161136712641,-0.47701781658113257,9.14506993016997,-26.68807835813595,-1.3007010208313716,0.5000185935740631,-6.053816519084304,-5.260249694285696,0.06978002753676277,-2.6683560230927963,-5.089707071845467,15.991320988394769,-23.210667380980464,-3.9916931349863187,0.35156678079383374,-6.9113381813106685,-1.224301983146414,-3.303375501476052,-9.080930062571563,-23.309600830078125,17.705230712890625,-5.847499847412109,10.1213159177495,9.97256942149248,-8.200117029873748,-5.1576113242864094,4.97997569933442,-16.30609775621046,0.15760646674949114,-5.634337353163573,1.6199386636404887
33.12750876311625,-60.94125053515096,-6.794893411682084,31.028059312655373,3.886559112467088,-11.21101890545812,-8.235049389769108,7.893115448530516,-19.884779812759977,10.349971365327844,-6.900891936621935,10.55472240918052,4.088999637568072,3.428006734594747,-18.039476377638646,-2.9360397971793035,0.8232690018537141,-12.382234733992767,-1.8488491928838378,2.982801939028278,-1.7460688436640728,-0.464236067561973,9.701181656695235,-24.203683647838865,-1.3021569991753763,0.5002345159783086,-6.760426204564678,-5.359556645245988,0.07643728992390725,-3.690590837864682,-5.099983009629263,16.268437791356614,-19.643042318957917,-4.013756978635977,0.35478575219702685,-7.912040465603343,-1.2449786438291364,-3.298003916062374,-9.36008986562468,-23.309600790746412,17.705230683015564,-5.847499837545258,10.416107022781762,10.96332377517878,-1.5211892402898004,-5.035608055612821,4.948983853443845,-13.510141685432345,-0.06885023621033386,-5.626571729756368,-3.335522105015276
33.26503726901546,-60.94878688837129,-7.160311124441039,30.99637836081272,3.57897439996405,-11.36908711738621,-8.260961015283879,7.903920488049767,-19.476403695504672,10.345843078129944,-6.901485187280302,10.50459812193103,4.089934404081532,3.3400772265094902,-18.238697062804995,-2.9371893108453775,0.8234991129014689,-11.801373626761013,-1.8459858361748667,2.9828741259571,-1.8813660876694756,-0.4554366820641057,9.981392832264437,-23.404117759847153,-1.3027822005125353,0.5002850628079948,-7.061860752916471,-5.386288381434437,0.0780233995781106,-3.9655976365878063,-5.0752276490308335,16.62343769224048,-19.68202269392975,-4.007030658865526,0.3537925862805366,-7.607204714191232,-1.2468446004708427,-3.2977718169757844,-9.384788850912857,-23.30960072730764,17.705230634829512,-5.8474998216308585,10.30757855368588,10.756680410653734,-3.8946226251408,-5.03514873652676,4.947897590300537,-13.494610676458047,-0.05202795021570532,-5.628915848308497,-2.9658314222368234
33.93728612842847,-61.0684051317655,-9.021180801403995,31.03469051873421,4.0067267936723265,-11.148200694480838,-8.354131875368228,7.93879762805482,-18.025699597040504,10.304490074262478,-6.908974558269253,10.001204213525368,4.155493856080528,3.693511944574269,-19.781218263068624,-2.9359969991346047,0.8232420085891364,-12.410369543427148,-1.8636903732605936,2.9835340107833614,-1.0427138809500403,-0.44399918094886925,9.958249949040258,-25.87784167196691,-1.3026317928308229,0.5003418860569054,-6.998343755919771,-5.395154752220517,0.07861215487443311,-4.05695311001144,-5.133415703028476,15.462235368067116,-22.148141385734803,-4.023456443992839,0.35670061079415355,-8.358680208582559,-1.2389528512118737,-3.2992186665324543,-9.27955089628056,-23.30960060852703,17.705230544607534,-5.847499791833286,10.150955314663257,8.50470460519214,-8.178515904739522,-5.096157210397415,4.963085689999642,-14.891842869354521,0.06215493898436585,-5.634860015378652,-0.46631303934494484
33.80282789261687,-61.03339190383049,-8.638402339938683,31.035342033535,4.027915461078911,-11.137015229229478,-8.360631486598953,7.942017084755824,-17.92126353146252,10.386953717793203,-6.894514358498647,11.003522843164198,4.147344104122863,3.81736118707503,-19.28256034129016,-2.9381690310184574,0.8237093211833111,-11.304797654970807,-1.8766530875657998,2.9839247814776027,-0.4291401553589242,-0.42653628578603175,10.426380090059126,-25.08681593966999,-1.3015041201021527,0.5001149218491626,-6.442250593583538,-5.369494099490468,0.07625593900780717,-3.792131648000958,-5.091649076805314,16.128782629201783,-21.78929386765482,-3.9989072270870736,0.35266383141807467,-7.238908299130959,-1.1739532697034512,-3.310822631181079,-8.413957191747599,-23.309600830078125,17.705230712890625,-5.847499847412109,10.160379537166287,9.295228707294903,-7.664073258237737,-5.052057344189548,4.951128516667455,-13.876080782783943,0.037710011701516964,-5.634757805487708,-1.0005997655292125
34.005390927167134,-61.09289089316619,-9.217604722341793,30.946834053366985,3.1433190443978787,-11.591934004023742,-8.382017670079028,7.947582834134177,-17.59912124224369,10.321243205869878,-6.905974313919383,10.205095598711322,4.141428844819226,3.3784506661781735,-19.899964378471626,-2.935108149791709,0.8230292066067552,-12.863759307930204,-1.8601856931610186,2.9834228423717675,-1.208745319887399,-0.4352235879089402,10.17917713511472,-25.609363471677966,-1.3034922670973628,0.5004623818289161,-7.416376681008663,-5.385771158365514,0.07807374754825816,-3.9603846972516705,-5.083310204404977,16.21255030471943,-22.029641063730654,-4.0082908707071425,0.3543863355160615,-7.670247746815006,-1.1989053215478045,-3.305983618826584,-8.74702086560413,-23.309600598401875,17.705230536916943,-5.847499789293245,10.149723212851287,9.792199067441976,-7.589118386190643,-5.074528883266758,4.956790845499906,-14.391595887546169,0.030005069315367686,-5.634535416232289,-1.1692076437483951
34.04855440847379,-61.089013426900536,-9.32982976241718,30.965455290531782,3.309326843524628,-11.506996910147594,-8.375910684065268,7.946171210068898,-17.690404990043717,10.330736363235374,-6.904200533380927,10.320520680287007,4.166575014303477,3.800613865006601,-19.961508384606226,-2.9355355179299134,0.8231516429921326,-12.644032222679197,-1.8695146593008227,2.9836229715441602,-0.7672032892872477,-0.4359815435260704,10.140550113253447,-25.812873426196788,-1.3029396240904072,0.5003679980499919,-7.147284426976787,-5.388461854001888,0.07800056753849892,-3.987912861762741,-5.096393962014741,15.969213521409028,-22.52363681084837,-4.013530787981878,0.35508609431063226,-7.907255484377506,-1.2006211610328419,-3.3061969509919518,-8.768784125025883,-23.309600590412803,17.705230530848546,-5.8474997872891095,10.139127405178042,9.536438828039168,-7.983889217170406,-5.076176620835902,4.956900508161677,-14.427131013266337,0.04166194110979921,-5.634379320106116,-0.914385081522115
34.171608468375155,-61.10117979636958,-9.661310352678854,30.931350757075776,2.938298761811404,-11.69844067665467,-8.420612057717204,7.960334482517326,-17.006660944110248,10.343216641617413,-6.90321948829386,10.469571649642784,4.137312080305458,3.4111160013553814,-19.68373361838654,-2.937498285429112,0.8235676560752219,-11.644952439337928,-1.8650960727041905,2.983726315083302,-0.9760122746690945,-0.42581204086276464,10.454142195427524,-24.98287617387452,-1.3022532206372026,0.5002165283221109,-6.805618463730284,-5.3743183655455455,0.07655462914090189,-3.8418008305506777,-5.064731788247495,16.541319515407533,-21.637973963816957,-3.9949044532961966,0.3520641239934529,-7.057354445434782,-1.1653880970352108,-3.311453740540915,-8.30177208287726,-23.30960082160863,17.70523070645747,-5.847499845287432,10.234686923498204,10.168496110313358,-5.713354786756289,-5.035513532929074,4.94690820764389,-13.496847872299053,-0.011078527824181086,-5.6330165644154215,-2.067692503646139
33.53004621862252,-60.99995993868466,-7.897201146824626,30.99138301231111,3.55055026238744,-11.383322664854434,-8.34149967805567,7.934083982265816,-18.22191558373091,10.391795515587127,-6.893078224954204,11.063992637992014,4.127008570746059,3.284707856314641,-19.568498894731746,-2.9375211931321092,0.8235560210942059,-11.634947443009342,-1.8685820839531981,2.9839484304341695,-0.810806733240895,-0.44379645528702505,10.023211267614744,-25.32021482577934,-1.3019064261847757,0.5001644239668209,-6.63744666409074,-5.343495103007354,0.07467223028378403,-3.5246816753213674,-5.0568792355256775,16.59621619749571,-22.102016046281392,-3.991642285906711,0.3516398901818769,-6.909677811412546,-1.1827373563023016,-3.3089893236026215,-8.531412406723136,-23.309600811927723,17.70523069910416,-5.847499842858856,10.176033545055072,10.39105361707103,-6.807385790801865,-5.072120394635283,4.9566418100105905,-14.338043682324416,0.03293412906015759,-5.6333428708476045,-1.1057686754102516
35.210854491466236,-62.03822908158394,-13.5387500452498,30.488799406101396,-0.5059793085031679,-13.448435728422087,-8.955061701746143,8.005079040874056,-9.297122432118686,10.187416070556251,-6.692006380473997,8.464640976194307,5.1304761291936,5.440587931828848,-55.272931680414814,-2.8477319431258583,0.7072945270633909,-91.40677702782581,-1.1005812502034416,2.672823330538094,-41.15401542835081,-0.316154068424377,10.323393788627387,-53.45114977715256,-1.386543727436875,0.5989886143968483,-75.95367083481734,-8.163453034270546,1.3747417524798673,-36.377733499371196,-4.836190436080614,16.015873087304445,-61.77758363154544,-5.088436322095599,1.7397471359920933,-95.28501399925615,-3.7802702988053136,-1.8561367527037274,-48.57523225466154,-23.309599955982165,17.705230048959233,-5.847499628133819,8.245189151098488,5.170803445083923,-61.4855955737769,-6.966821448709982,7.3235529199694716,-86.8141677524394,-1.5744490412190353,-5.01162096857922,-39.71362648404449
32.67251965361668,-60.86378698055319,-5.53822227882549,30.55971089069595,0.11241278561232956,-13.132591196137446,-9.43028266905224,8.131128890690484,-1.9963714159877153,10.782381582648362,-6.796468824646377,15.888035984991596,5.1773501564126185,6.483894839835204,-54.496295688897675,-2.84822816231734,0.6863008473048018,-101.9687916275787,-0.9976340546507295,2.587872696573833,-47.46312907898296,-0.1943590626351805,12.46012026379879,-58.67259425740417,-1.4046633686910872,0.6420593235492785,-101.35480129223313,-9.257035810662783,2.0932888683499398,-50.258126187741134,-4.754305435311839,17.125269906018286,-61.9248291506376,-5.084280307810542,1.8765193643154265,-101.51089443375037,-4.061993157032634,-1.5474442511861153,-54.07027121534142,-23.309600287384214,17.70523030068224,-5.847499711270017,8.262603820124811,5.175123550306256,-59.12176147953749,-6.970612955268299,7.5654288819351825,-92.10958132703769,-1.718590778257053,-4.865718400125007,-44.136619598828965
32.48282180273376,-60.846218872920055,-5.026401865056675,30.78286491507978,2.15340266811757,-12.087901441516077,-9.437124846387745,8.130243833679918,-1.8964856758493938,10.70879697180619,-6.815671335900828,14.976362823055595,5.178303504450504,6.869374660505364,-53.870432557828444,-2.850772130197707,0.6854556409315784,-102.01179064256213,-0.9706581200048997,2.542472467602789,-49.82376242042758,-0.18294637352527438,12.673925227769937,-59.12956963913191,-1.4041843488455172,0.6446921188767861,-102.64655804844907,-9.369237373703596,2.2374624368531832,-52.14313090557348,-4.750446404959106,17.164835355862344,-61.98858509107646,-5.078338087162615,1.908576731807903,-102.97972427519048,-4.12986738403522,-1.4482531799514626,-55.650098051546955,-23.309600253214874,17.705230274727693,-5.847499702698304,8.291961120361409,5.191866246357973,-57.87419005305817,-6.960241436099547,7.660318205391418,-94.22420837653414,-1.741562838959962,-4.844526788860633,-44.8182091201926
32.47512981425051,-60.90012143519346,-5.071975382022506,31.2155805577121,7.661498267856391,-9.23941812508169,-9.495820781201074,8.110970225552256,-1.0947102083098967,10.470927695168411,-6.835003607672592,12.000752785424536,5.109785809875836,5.221938709363107,-54.94020073716455,-2.852639925191028,0.684190359029281,-102.50296348760614,-0.8696508720939168,2.3592380372894937,-59.70908883900746,-0.24065058573875514,11.356942744081378,-60.08232006700662,-1.402941984338269,0.6496271084003201,-105.08916285748579,-9.720922063348546,2.7698492511615216,-58.74138146430907,-4.836163970238288,15.894257038848234,-62.37989356026285,-5.060723285375698,1.9737282268304068,-106.00086625620193,-4.317302010132144,-1.140267252129195,-60.40058757246263,-23.30960030650995,17.705230315207746,-5.847499716068197,8.30784620179842,3.3836101366840374,-57.05868388989134,-6.921736554439515,7.913623438528023,-99.92040108542682,-1.9761960210112646,-4.558916971156581,-52.947474388158405
32.66726096640026,-60.985048481587654,-5.664172373557281,31.246422080347507,8.191301662988023,-8.965335913432623,-9.462207699160032,8.087771051502449,-1.6727425877863953,10.359953081905934,-6.821445205271441,10.613496601622192,5.045776014647603,5.185175489724444,-52.19129129449021,-2.853203962061383,0.6890270600453341,-99.79667009912797,-0.8825493397609944,2.3603969520268198,-59.24879323695243,-0.2586640789915867,11.122533705210742,-57.84124530386274,-1.4031899121746023,0.6466015611726807,-103.60395884862879,-9.746386725579157,2.8370590550737815,-59.471880798625314,-4.845388131236074,15.950922941798076,-59.79772638920765,-5.062487493755831,1.9517776647693375,-104.99453901751886,-4.342165988880444,-1.072586456669418,-61.34325707690872,-23.309599927924893,17.705230027647705,-5.8474996210953245,8.364135089132237,3.5682437227734227,-55.126293986062265,-6.948857375421998,7.963487597582969,-101.17663289785727,-2.0687214790972455,-4.476071906646161,-55.81898401143346
31.978490650849057,-60.78331949961743,-3.6547180901936995,31.544138768023977,12.364661609908506,-6.802504951445725,-9.570936812324607,8.133263502786354,0.06456851646189443,10.35658007381416,-6.90198790112296,10.62975935268323,5.171502763805547,3.571995719703748,-62.342722589973185,-2.85087619646597,0.6743349313531144,-108.06048291621127,-0.7511779473520896,2.1950072470728816,-69.58809348321492,-0.27552866412249477,10.29155710083045,-65.07694190437378,-1.4023914365152077,0.652757379355319,-106.6272403908504,-9.911667945994353,3.05970160943111,-62.32578317841138,-4.9227217408936665,14.283722660280482,-67.47415906260272,-5.052609765736314,2.0131647404782886,-107.81704104657442,-4.421113890710476,-0.9720045757056873,-63.00251697982594,-23.30960057398142,17.70523051836775,-5.8474997831671,8.133389756538566,0.6945860558005736,-63.375701884084386,-6.9320558931793865,8.094605735599494,-104.11231081238184,-2.153301046916467,-4.378592858304501,-58.63593267982312
32.58685592193401,-60.84834285997259,-5.301180568918133,31.324145442178487,9.406783529966324,-8.33421423870241,-9.424311341702703,8.13089441017591,-2.0838826532214902,10.547536132243286,-6.859093272287373,12.97490881496555,5.187776603434145,5.010167515562255,-59.17211088386749,-2.850401400556657,0.676539504065166,-106.94055002798449,-0.836283438365971,2.3581678229568395,-60.82457211815586,-0.24753719256698217,11.02889239405897,-62.98152165587251,-1.4028700798432796,0.6503896845625345,-105.4631534710094,-9.696778189436108,2.699265516844578,-57.99415485838063,-4.879112432866572,15.033920181330398,-65.98330271820663,-5.058689045171935,1.9872030819472033,-106.61993364187579,-4.29988646252774,-1.1857296207577708,-59.76853855406142,-23.309600118316542,17.70523017225989,-5.847499668857869,8.141670151562064,1.8187737860189674,-63.641220869074466,-6.934745252245273,8.054906304578846,-103.23754544415132,-1.9933655598311173,-4.594339931186493,-52.74211779495106
32.885386488517646,-60.87418428828503,-6.104626768805109,31.55484136252155,13.387394899525477,-6.266630971730244,-9.501055722574755,8.133707231747229,-0.9599290569896256,10.113131387980404,-6.941020155668538,7.677888107888849,5.2825338288281385,4.966667407271704,-64.96338773593322,-2.850894419128961,0.6742665217252916,-108.0961547110268,-0.7293243798506949,2.1334511016634554,-72.67835148091652,-0.2497822204206824,10.686873773098956,-68.2013648761119,-1.4034865170179964,0.6488446920696892,-104.67601576413666,-10.045187910571395,3.3426122370168194,-65.54803623638132,-4.896248152652468,14.528399155957079,-70.3989040195418,-5.065071306984928,1.971666899740105,-105.8757972136543,-4.597490765007092,-0.5819311488000228,-68.63240213390479,-23.309596183492676,17.705227183493047,-5.84749868175893,8.078914160936682,0.08797470917324328,-65.6586940366968,-6.962283612934897,7.9483203044298305,-100.80251235515463,-2.2672898600424767,-4.168399749623564,-63.87188658908488
32.848493795272354,-60.86997826738749,-6.004602858393521,31.557694829936974,13.472422690128747,-6.222174067090885,-9.49140994232458,8.133652597484923,-1.101068233668462,10.15775992834419,-6.932593359524335,8.221929163665097,5.274640631581127,4.930856712266078,-64.57368215087845,-2.8508941181303458,0.6742638876864707,-108.09750586143237,-0.7311674387550607,2.1387913541745327,-72.41117138677626,-0.25289108909284785,10.636374923302258,-67.87353681459028,-1.403391480923145,0.6491838750284813,-104.84527289021699,-10.034729918136929,3.319179211389857,-65.28388828738241,-4.897098321574872,14.537736626523545,-70.01776999615268,-5.0637085646927185,1.9761992749198145,-106.08799598433203,-4.596569500907286,-0.5847123391950292,-68.59393614952167,-23.309596283534205,17.705227259481394,-5.847498706855578,8.085554067631964,0.2451394570965615,-65.4065019360021,-6.957077574661217,7.971554151897671,-101.3302410276841,-2.2674956383328144,-4.1684159443140745,-63.873488523577535
32.55442653912746,-60.84079595388361,-5.210397919659657,31.549826609109815,12.993892100472422,-6.472788731070283,-9.53432433536017,8.133469843504484,-0.47224004243569534,10.191060995764502,-6.928899544402268,8.621899962420636,5.240488661707026,4.400811647942841,-64.10057592805231,-2.850889781200919,0.6742838309999684,-108.08709278562556,-0.7350277619062254,2.1498690224099515,-71.85630815595337,-0.25955446534498455,10.532448483924634,-67.09716463448541,-1.4031142535541263,0.6501812237941088,-105.34251868819624,-10.009087053614367,3.264774631136033,-64.66437851113983,-4.903998480108436,14.468097228617891,-69.33032136337366,-5.060822523698991,1.9858631803004905,-106.53989376588639,-4.543124116701691,-0.7036780430368685,-66.87901006192233,-23.309597727925883,17.705228356595068,-5.847499069199021,8.100562653474956,0.3445550862957099,-64.76465184445021,-6.953138524040389,7.993471029980993,-101.82329336686817,-2.233921505191697,-4.23109976042652,-62.31692295216243
32.896828130556415,-60.87573876243008,-6.135853239400444,31.556309817758823,13.480116694532105,-6.218079417394603,-9.50343967795711,8.133833671079282,-0.9250106483737868,10.113801687665598,-6.940990273812232,7.685868315074134,5.286905246835772,5.062492223338478,-64.93206132131662,-2.8508944659150184,0.674264838938213,-108.09704348417195,-0.7292586697012372,2.133248031853955,-72.68844813358491,-0.24773111581975604,10.73168487700564,-68.1988362330706,-1.403489392219092,0.6488337354499998,-104.67058903771432,-10.041598503253148,3.3346767810901925,-65.45837235558768,-4.894216095140403,14.559679906652306,-70.38268469185854,-5.065106895763721,1.9715580952363987,-105.87069533499232,-4.596580791435507,-0.5843652679198216,-68.59825980979879,-23.30959593342569,17.70522699355017,-5.847498619026546,8.079523454905425,0.08463225343053249,-65.62680595903073,-6.961933930628662,7.950406217281679,-100.84935750656149,-2.2661231098537713,-4.170819272208806,-63.81310717363209
32.01914762617967,-60.78892316389047,-3.765761356813664,31.52234074814678,12.105367841261092,-6.936550273381257,-9.574053711779577,8.133360095111058,0.11026532551360066,10.358871937633369,-6.901511643435775,10.657758985053352,5.172929943692955,3.6993810778387903,-62.04884324381239,-2.850807912681989,0.6746346424832484,-107.90746097025522,-0.7575780177772669,2.2039650822603676,-69.06327083607475,-0.2709101497397601,10.403965667931425,-64.88507048896523,-1.4024198048455594,0.6525920852414607,-106.54607140795824,-9.892578536308774,3.0346233457226144,-61.999727269860884,-4.910759035012726,14.468612988517748,-67.36107911440943,-5.053156554461273,2.0106123050784226,-107.699003592168,-4.4106599000462605,-0.9857364583658239,-62.77574671464141,-23.309600496215122,17.705230459299315,-5.847499763658415,8.137018945032901,0.9570568833182704,-63.321179903804385,-6.933184457755602,8.081965399983552,-103.82847270703674,-2.141503115601952,-4.391084590869092,-58.25894997253593
31.985033117561084,-60.783961386450585,-3.672355413248417,31.541982000779758,12.32973671740471,-6.82069519375396,-9.560798444960794,8.133147692289569,-0.08397225883113003,10.363153861944635,-6.900422173146685,10.710718938000925,5.1627475604170785,3.5774114176437353,-61.904471685716324,-2.850809570563761,0.6747839072094031,-107.83195648825944,-0.7537789736393392,2.2005979734526413,-69.29578586656648,-0.2777604479975921,10.267832218557706,-64.73019076834322,-1.402442487544087,0.6522949144831997,-106.39890615867073,-9.90433585463166,3.046745775330929,-62.17226727450245,-4.9247151673000875,14.279191801811448,-67.16087503695441,-5.053081523761358,2.0095296469526382,-107.6486589079172,-4.418348074542393,-0.976570388029515,-62.93241216986884,-23.309600589741237,17.705230530338405,-5.847499787120643,8.140534507939043,0.747186441892309,-63.14247163371787,-6.932397578764046,8.092391775255615,-104.06236420482408,-2.151029489230025,-4.3806451588904,-58.57137565061
32.50647831546431,-60.836828879458025,-5.0812448883431935,31.378557024108268,10.23105335823333,-7.906765984536031,-9.42985901313234,8.130571726564783,-2.002509798111289,10.555340517101302,-6.8566940943736965,13.072544617447756,5.121778496878078,4.452442051340466,-57.468322186635184,-2.850176646388368,0.6798967307147465,-105.24322605612976,-0.82154773497306,2.330763733252909,-62.293287359918914,-0.2750807882297768,10.55221713460873,-61.32892654941024,-1.4030137938773084,0.6472148843758775,-103.90187638832205,-9.71621229723826,2.7397118108447014,-58.450041747638664,-4.897491900774494,14.897740551635495,-64.16345762111358,-5.059293831184205,1.9622281570829074,-105.47411043327475,-4.314558525962104,-1.154107683045766,-60.22362478714672,-23.30960055778905,17.705230506068943,-5.847499779104986,8.198202618767954,1.860637330734985,-61.45577742465841,-6.9342802356264714,8.038543321347158,-102.87374413638929,-2.0335963151256724,-4.536395500384372,-54.28708926123383
32.159084244342104,-60.80465804874644,-4.144959287183352,31.361012668342585,9.533605642824387,-8.272960300694534,-9.61161042193464,8.12897607817072,0.661568308832469,10.500181170973367,-6.869593847408263,12.393398615520312,5.081594339633367,4.773449223506003,-54.38667809564415,-2.8502550981051966,0.6795724753598215,-105.40902192297752,-0.7949811932575446,2.26702142089519,-65.57772231112695,-0.26055470132595976,11.054582281841446,-58.21773064442452,-1.4026739059800224,0.6484750028737928,-104.53110978628334,-9.823732953914284,2.934017984503693,-60.743190437851254,-4.840070077180387,16.00766588788612,-59.92936682734063,-5.058416944104051,1.9660021411913398,-105.64992624111619,-4.388113288404997,-1.015586481847763,-62.28933539551741,-23.309600212340598,17.705230243680443,-5.847499692444553,8.374605228023988,3.5113943334794135,-54.49176326926083,-6.943046945222409,8.012709110087062,-102.27796707142195,-2.09820753240984,-4.441990954973876,-56.80395658913524
32.63491251965434,-60.87437690650882,-5.451414213002695,31.234266959926604,8.4062210968747,-8.849490219792422,-9.402779696115656,8.126076057841969,-2.4046774965930795,10.540145005436182,-6.8384071943982265,12.896387909549675,5.095984290067239,4.383608260943229,-56.460474203555876,-2.849656935901076,0.6827927394776381,-103.77691840608941,-0.8547333800276742,2.3762822320108903,-59.60744426539929,-0.27561294349526677,10.599219178300565,-60.43163536979526,-1.403466288743231,0.6448498878416307,-102.74049002366199,-9.652472542983057,2.653896903832055,-57.34591535569976,-4.889488352411891,15.078795608059979,-63.26056898070098,-5.065143898606078,1.9333220551943708,-104.14805006585287,-4.2753447143794645,-1.2096953212150654,-59.329498074563816,-23.30960033345558,17.705230335673072,-5.847499722828081,8.217719422445427,2.1660119217787472,-60.87866317298203,-6.945412160747931,7.952922679589168,-100.95352397047354,-1.997150087821961,-4.5797313068189105,-53.04545500596086
32.57857447306827,-60.848127830597626,-5.279358628660516,31.23797790836728,8.64087340392733,-8.725889180257097,-9.392422024424725,8.121384038727909,-2.570265605750949,10.53691773600944,-6.838305893132282,12.854790039257342,5.101382144970838,4.5453095307777405,-56.408430488512806,-2.849798981473278,0.6828943563346974,-103.73290679294905,-0.8480000292503944,2.368246120418134,-60.10029094563718,-0.2775353170021132,10.565384141579054,-60.43550660258592,-1.4031982062084907,0.6446721731060735,-102.65686461763771,-9.661626931422356,2.663246898892928,-57.478283048852944,-4.894326317528113,15.007785146766008,-63.36320753225825,-5.0617339523211005,1.9343406402780372,-104.19888571967651,-4.280421703417395,-1.2045421822916274,-59.42128417683285,-23.309600384822826,17.705230374704662,-5.847499735712106,8.21792590328343,2.1278727904589774,-60.950247487819595,-6.938545983083255,7.967170565630548,-101.27368973295943,-2.0045451114418795,-4.571750457397827,-53.28268601169195
32.66913315996943,-60.87862231808088,-5.544511439366737,31.175731061683038,7.772364589350677,-9.175548850753676,-9.367493963312397,8.117113348902151,-2.940837965218797,10.491007349595582,-6.827869136314639,12.298521674219266,5.079994068270446,4.352891147378897,-55.904933615807956,-2.849571640657381,0.6838928181941324,-103.22478042368505,-0.8594471695706486,2.3835202207363606,-59.196036949667075,-0.27969952174704865,10.537159827493362,-60.091813221756276,-1.403455870578152,0.6435488464375032,-102.10416301722923,-9.628019518022608,2.6199999277776067,-56.91304389678733,-4.891219425201736,15.069455092358751,-63.0453348687385,-5.0652554394909295,1.9189769039760893,-103.49353648297158,-4.262568133915668,-1.228950784036134,-59.024602006935744,-23.309600415175723,17.705230397760054,-5.847499743326462,8.223849060569504,2.268673318219218,-60.72593613481447,-6.945390347836052,7.9152063459850215,-100.10684382227147,-1.983113410106546,-4.5960720038706935,-52.570230550847285
32.364139308616124,-60.83111699190359,-4.703605055111328,31.14578049823651,7.837479809165682,-9.13898222081909,-9.475537452711485,8.120601744588367,-1.3531373469821182,10.504415084654456,-6.843256301042387,12.462249389033232,5.065638685228773,4.957830923683818,-53.278430282503415,-2.8494544041561936,0.684777604544381,-102.7810393771089,-0.8537571157633249,2.356037763048006,-60.47399358734888,-0.26759653255317944,10.984701113477959,-57.09371594706174,-1.403265547291305,0.6439618756548723,-102.31625620893688,-9.654455275069964,2.692166303547537,-57.68523060711496,-4.827870741817605,16.256559366600097,-59.08747293618918,-5.065365655987215,1.9181848814053137,-103.45641656754815,-4.29570216542486,-1.155284572570883,-60.08295484103801,-23.309600311443877,17.705230318973296,-5.847499717303396,8.390586855282494,3.922503254188108,-54.16270824891272,-6.952710735137088,7.889623700939078,-99.52417090216163,-2.0295566312208653,-4.523931111198127,-54.45791677374248
32.430388840163275,-60.83525487944663,-4.88036656943381,31.309825453517327,10.70187014225517,-7.653027022785381,-9.49890330079077,8.131764357075056,-0.9910093146632726,10.493306431041354,-6.866818842497484,12.321393582536805,5.102855286534978,4.779611761047482,-55.41546240064613,-2.8499754569053426,0.6806955778264545,-104.83782959188285,-0.8190674318685663,2.303601790172302,-63.490567039689516,-0.2680821947987151,10.85556122020334,-58.76024842252744,-1.4029542240337,0.6475774960392278,-104.08596666026371,-9.75098272589084,2.8293869728753362,-59.42448826808688,-4.82113129085362,16.238816015511407,-60.70452097008995,-5.060931558788047,1.9580103121298942,-105.28068797699149,-4.360509637982914,-1.0485655991950589,-61.729991610698505,-23.30960046046935,17.705230432155826,-5.847499754690038,8.347288439224036,3.5400213698794762,-55.65060651008723,-6.941457384307239,7.994321610181707,-101.87959281163643,-2.0781507478772214,-4.458119444836627,-56.25743276288706
32.34597195160618,-60.83106236459539,-4.655771898692314,31.14615119218536,7.4224779423170855,-9.357071274903575,-9.442578015667912,8.111969244567643,-1.8542178447187985,10.44199432528383,-6.8368749205882455,11.692654484850166,5.033487136556263,5.005722398150225,-51.80908342501377,-2.8493406725809707,0.6859597639037314,-102.18886114170009,-0.8536999445013055,2.3616012852097445,-60.24099077538912,-0.2719496321598806,10.944620305963667,-56.385264093390326,-1.403395963886207,0.6428788093947873,-101.78915070686645,-9.661712893158644,2.6978078413585296,-57.77487483832808,-4.838993926752876,16.151650916920115,-58.40445293078921,-5.0668849977634665,1.9073469478082605,-102.96284043976361,-4.3073070088259575,-1.1361032649245346,-60.38211830397663,-23.309600208237033,17.705230240600255,-5.847499691409913,8.413748272394518,3.8748582037569252,-53.48008596222936,-6.953886217980088,7.882428102624001,-99.36070414023261,-2.0356725381802447,-4.519597095436813,-54.6126515318973
29.73418858999777,-60.89215458815999,2.2093326584008985,30.221119934418148,-2.153758735636647,-14.268640001511432,-8.751305020708175,8.037017160597273,-12.041994863213494,10.443733146390725,-6.839936671184083,11.699611867205512,3.434424236786852,3.4688091844086215,3.0755596891186836,-2.9274276002733637,0.8198645998859377,-17.048467902064182,-1.5281027998898387,2.9215457266138607,-17.34412826231198,-0.6618186677297266,8.244085043971168,0.4939131938293702,-1.308049305428227,0.5014218169755216,-9.660394336328856,-6.338652534900016,0.24263418361099412,-13.933689985524108,-5.348779222376593,15.082666620544607,0.21107234145584639,-4.079960519236899,0.3725784039231743,-11.024079836824953,-1.6627389400069768,-3.198199835555862,-15.006778155924435,-23.3095990240527,17.705229341101436,-5.84749939434699,11.182709189110705,13.511379385111494,17.177297215531564,-5.562947159525322,5.173067495320871,-26.3651528403774,-0.9252559398282049,-5.4034374967935275,-22.896488055623276
30.255741469771973,-60.80741050026222,0.8833144825464199,30.40918036660711,-1.0040836216350695,-13.695039510390044,-8.737524597901896,8.034230283537607,-12.248289863633007,10.61001873241099,-6.824505135928772,13.792650706255921,3.592815170083201,3.291672250543341,-2.312459414720306,-2.931113683318807,0.8218339101743236,-14.92345324813336,-1.6066145052623926,2.9456768692916255,-13.380889109086741,-0.6224848609765864,8.366120894527961,-5.7478638554480845,-1.3076868831143675,0.5011665973279851,-9.453476114939008,-6.124330649826863,0.18551954232197018,-11.64013649644622,-5.281824925723575,15.400608058129706,-4.994744452012285,-4.073195409844414,0.3660997963700595,-10.626918289199812,-1.5126213022329567,-3.2385254242573196,-12.957686681717043,-23.309599602170366,17.70522978023049,-5.847499539373592,11.017473337331017,14.122899427984644,13.85546835134019,-5.359356192615017,5.064667312007326,-21.167723644182207,-0.6753566277526325,-5.513379361496518,-16.889096464239785
31.93452404272734,-60.823470006852574,-3.566899545656804,30.720977834959484,1.1851360170146759,-12.59233218684213,-8.78512848639955,8.044485300241542,-11.53993921698764,10.596384638909644,-6.820984944284095,13.647250877472324,3.715255109496957,3.3661491317127132,-6.072530235806467,-2.937714984711352,0.823491861827213,-11.548186760943144,-1.763034630237974,2.9733115553277627,-5.837948811547208,-0.6112171988728101,8.27104073680403,-8.621259727659204,-1.3014376529770544,0.5002649852835321,-6.418065539678103,-5.6235071488562225,0.10681466067788739,-6.421423294425734,-5.225303910056459,15.985253705385539,-7.082931951391648,-4.02645670895196,0.35739773234931455,-8.493352260631013,-1.264886384774455,-3.2929849501425785,-9.628510776452611,-23.30959898304056,17.70522930994559,-5.8474993840592004,10.861251945548636,12.961463823945714,9.362356513147704,-5.170499717861411,4.994311540541411,-16.66937326883241,-0.3755067844977287,-5.583882933576156,-10.124462832534526
32.117921793206136,-60.8105487378459,-4.040543492297778,30.778205284500686,1.670674981233353,-12.344650894747115,-8.901312913770575,8.072942165339427,-9.789668917255712,10.898920565189748,-6.755537029083487,17.366233257469247,3.726580684096254,3.562822182029203,-6.079779187762756,-2.9407982521503446,0.8241885086562644,-9.980315187457387,-1.8187349939944,2.97913581504464,-3.180489620720009,-0.611414831716495,8.384799477703297,-7.63458527448133,-1.300953074984525,0.500120431334422,-6.178453518333883,-5.547384020996896,0.09565447493553642,-5.630718295846152,-5.21515909026469,16.12797474391203,-7.0867551827753985,-4.002004563189795,0.353298065743322,-7.380383499129607,-1.2406842371709146,-3.2984004622938117,-9.303499975219216,-23.309598939169117,17.70522927661879,-5.847499373053998,10.84093766393386,11.996822461163733,8.247113202485705,-5.059588994390039,4.959011437935512,-14.079691644289632,-0.349070081519331,-5.591805877440461,-9.52539136140335
32.152318834406735,-60.83161979180217,-4.145580339060498,30.92229369084747,2.9637167935182185,-11.683039050016127,-8.786279711311415,8.043926565672313,-11.52221659988433,10.797619548705331,-6.7875335338635026,16.092095038361297,3.850115970393272,3.4137383504586776,-10.309018397718479,-2.9373492037660753,0.8235166089878498,-11.724321671966779,-1.8021285810568686,2.977379120301087,-3.9701377110076463,-0.5557879384834095,8.922524355764216,-13.422240777277317,-1.3033654592074129,0.5003904688830102,-7.346138240950979,-5.536238189579036,0.09457664442347301,-5.516014106804261,-5.166556004728927,16.274666624638684,-11.658577447185653,-4.011644719862106,0.3547881497474769,-7.8191188395757445,-1.3149881717623613,-3.2839524398959927,-10.296500546440896,-23.309600155536426,17.7052302005507,-5.8474996781921345,10.583403791488935,11.306728593099137,2.335955413825731,-5.046852849870323,4.95474864855475,-13.782973928302122,-0.3041457815796547,-5.598186018546748,-8.5315048739864
32.89108641741028,-60.90149459040219,-6.14213369799886,30.99632391289417,3.7565394999470874,-11.274414237661162,-8.803600630896721,8.04837099840452,-11.26059404173647,10.754607745889913,-6.79992895583939,15.555702423088468,3.858352516920304,3.4897415961885256,-10.502577129673227,-2.9358020312669906,0.8225157057456403,-12.688643446772119,-1.8737297368032098,2.981760580074986,-0.5712852283662664,-0.5549265490408244,9.046031543847562,-12.53439976001236,-1.3040615629630912,0.5004748078287218,-7.68402896777838,-5.386235793710601,0.07899412271835166,-3.965819320458231,-5.145927637267772,16.53392897871464,-12.038390164627328,-4.018421744869565,0.36099553130107176,-8.238161461516196,-1.2449188054674714,-3.2955524632656767,-9.367735029680036,-23.309599355454935,17.70522959281943,-5.847499477483961,10.446782819205714,10.619613706950263,-0.9710283079558896,-4.954609105246621,4.936111118050295,-11.694477671641028,-0.19267121372400642,-5.613501637039217,-6.068889797098871
32.831164240194944,-60.89289191567801,-5.97770494777784,30.92237888519569,3.036367187808996,-11.644345992635296,-8.996273237222082,8.080795369557613,-8.40062549684091,10.860630850085188,-6.767146988500417,16.886355919304318,3.8513147758938766,3.9348295947656475,-9.501596002145247,-2.935976528475892,0.8225645591708881,-12.598542079584448,-1.8818230113168826,2.9821483656484746,-0.18770822647746832,-0.5568414515734466,9.119467632634517,-11.558577461568024,-1.3050407158305593,0.5005961984295866,-8.157861299976396,-5.408811175186855,0.08013980324060295,-4.197929376823944,-5.167184376530966,16.235283453447863,-11.998374692581319,-4.007798431146466,0.35949104462024756,-7.756455933840808,-1.2471741993083947,-3.296100833824824,-9.395641726731618,-23.30960043323424,17.705230411464203,-5.847499747858438,10.481715689357952,10.10098027356641,-0.5648093546367655,-5.026191265315363,4.950365794326927,-13.315989442610253,-0.2351302827431937,-5.6106009833361465,-7.000105948097529
32.869019728345926,-60.88222263354984,-6.06830369229532,31.051871564759278,4.304933886054506,-10.992707060399434,-8.928758944028262,8.077819243675272,-9.381697378066486,10.835392476247975,-6.776187546624168,16.565535652227478,3.8540141865507933,4.48702809139828,-8.597320777876966,-2.938511118643678,0.8237797141930346,-11.13186252647152,-1.9153002696130557,2.9831839250653225,1.4003303344664408,-0.5290248953364558,9.744550430669241,-11.420296602091227,-1.3034247495565834,0.5003513353662535,-7.372179318224637,-5.329685168767863,0.07477923920491979,-3.383282520378428,-5.156615253816642,16.491975499920866,-11.103220943033833,-4.004649746074696,0.3533672801909988,-7.49843867145785,-1.1584056625067913,-3.312487147342756,-8.209327782025625,-23.309599161658717,17.705229445612723,-5.847499428868542,10.486414110915387,10.456896488049477,-0.2855373108121578,-4.919356507128915,4.9240350582453525,-10.867706328782495,-0.10065208804720767,-5.6263466513155365,-4.0331638513809756
32.67965512918214,-60.86015822025158,-5.554211585701519,31.05211721736488,4.291377079352419,-10.999993117456938,-8.952428515395923,8.080627197134733,-9.03300901638705,10.888365426812753,-6.760984036431889,17.226299386326005,3.8364489322368485,4.301528589028445,-8.345494811637764,-2.9387415015682485,0.8238151717230926,-11.01610491998656,-1.917946257155009,2.983070194244819,1.5254821691288125,-0.5324815959675215,9.702487129823199,-11.133454759758898,-1.3023858137288302,0.5002395631227388,-6.869978600812642,-5.315777603733428,0.07407848286712061,-3.240250933136967,-5.132816997712896,16.888543888802168,-10.634970670634253,-3.996294647401912,0.3522632310884564,-7.120111227931326,-1.1438452552428644,-3.3143268884971935,-8.017034503952354,-23.309597547246835,17.705228219357014,-5.847499023873457,10.458581660942945,11.072896367026472,-0.5069483795336868,-4.796587933472165,4.9055116947689275,-8.10780822292487,-0.08209389763517173,-5.62651254623766,-3.627344912754938
32.419497890230645,-60.82618281254591,-4.845126555740294,31.057424272849122,4.3123280049213655,-10.989703769118973,-8.991518187812032,8.086533927249912,-8.454922927952158,11.02266065246797,-6.7227784137710636,18.900369179091708,3.858870377615097,4.770081674699462,-8.263957362534809,-2.938833566107588,0.8238380466223346,-10.969307808414996,-1.9132775372170352,2.9831593224333077,1.304337842792568,-0.5068398584953163,10.203725482662968,-11.645744328579479,-1.3018356197454635,0.5001811407756844,-6.603937555714651,-5.3210321672313565,0.07441854687388616,-3.294415360278802,-5.133733599454957,16.869937694987005,-10.685374869467273,-3.9946792063753818,0.3521141615482797,-7.047488571629239,-1.1329204892298004,-3.315851873647422,-7.87254185172642,-23.309596446331106,17.705227383136645,-5.847498747695194,10.459039938015627,11.052787999257378,-0.5119373055971019,-4.790918654482143,4.904321382676259,-7.979864995630253,-0.03301791866521391,-5.629931397908076,-2.551955847330718
32.6465118651723,-60.857440396156726,-5.465073498827678,30.967990962828296,3.4627417738605124,-11.425820767645732,-8.87363313355763,8.069323228547084,-10.19727950609601,10.931221038242148,-6.749581901215599,17.758925780678123,3.7605995346309236,3.219211015676107,-7.758551065880043,-2.939852677267337,0.8240467211745743,-10.453247176006293,-1.9084624241820654,2.9826541682550602,1.076622717610811,-0.5981516775390259,8.508726908280037,-9.04119170835815,-1.3010665329009736,0.5001075860929822,-6.232846877397134,-5.3338909734302264,0.07657209761459709,-3.427713085114662,-5.166061787018078,16.60636614446488,-8.991663807660247,-3.987606722659543,0.351159570342387,-6.726854782430085,-1.1601166613038993,-3.3114943922576945,-8.233511048663761,-23.30959909715134,17.705229396615636,-5.847499412685982,10.666313198004648,11.972757473720936,4.415393555768191,-4.89544651927114,4.921452496075183,-10.334363213471006,-0.16699555510039663,-5.618127310941959,-5.495537082169576
32.424886032852,-60.832889456586685,-4.864204895219754,30.963926046922428,3.3963277479044947,-11.460307113261454,-8.73456291320262,8.03690516641701,-12.284786799861973,10.782487883938085,-6.793979136514164,15.897076995744078,3.803820304247009,3.140020304760036,-9.284200675697939,-2.9382850166222494,0.8237377256971873,-11.245231525249057,-1.9085272255719317,2.982653239541241,1.0792561204744067,-0.5844583266916904,8.553639602642825,-11.206470238939243,-1.3018719888092365,0.5001969597012136,-6.622169885994667,-5.331567024205955,0.07581229645728123,-3.4032948672257337,-5.157225141926769,16.603207322951178,-10.085733812050051,-3.99316379109724,0.3518106885373263,-6.978010491128804,-1.1815598308938007,-3.3083145901297026,-8.517655182554329,-23.3095998877727,17.705229997146,-5.847499611023128,10.718403279725406,11.750370686499966,5.361060084885439,-4.96031067310361,4.934492246639301,-11.805939490881658,-0.21449618471772275,-5.612017297136776,-6.544913044674558
32.54976613540774,-60.84283379416448,-5.199424151167518,31.096456865865413,4.654418572954345,-10.814495483003205,-8.454431263843748,7.970309356606525,-16.491720473751755,10.648837646010024,-6.834881260435363,14.221958076292811,3.8599685436558637,2.445104640755302,-12.297398180724269,-2.938854716463336,0.8238746479197918,-10.954752019348637,-1.9144916865761694,2.9836422910453733,1.3623392547292823,-0.5753922032781889,8.33320638886059,-14.775219648010577,-1.299766209537302,0.4999219151337105,-5.60113358912004,-5.324703118719358,0.0758305753442249,-3.3327508675466624,-5.108617669366121,17.116971974899165,-11.684713561683118,-3.993071023285875,0.35167362326437085,-6.972981421471953,-1.1334735307814134,-3.3164535731405205,-7.878358358026527,-23.309600807956425,17.705230696087703,-5.847499841862605,10.829410289555968,12.479189832155939,8.159331916068995,-4.954652509029357,4.930844660994237,-11.666009258991226,-0.14293819629240065,-5.6251212825983785,-4.956361387459084
32.831553236827794,-60.8831018243706,-5.970606010757039,31.008858119333517,3.824773342247627,-11.240395851139745,-8.520813079427674,7.987115845261472,-15.491738499008614,10.644158029493537,-6.834596673638503,14.168990578161102,3.8324196618029482,2.413394664361813,-11.471474889605199,-2.9375404146920663,0.8235956450026579,-11.6209154043139,-1.9354541864756083,2.982219103539975,2.3562012128701464,-0.5617259060588011,8.706117493777878,-14.155127732962287,-1.300037215016539,0.4999550617395474,-5.732925525812838,-5.317914582238202,0.07474610678527688,-3.262546416566496,-5.086544914309082,17.404941199958056,-11.803239896311151,-3.9925092521342,0.3515855382356046,-6.9475261434934,-1.144371311301175,-3.314796020617184,-8.022876694617455,-23.309600538108842,17.705230491120165,-5.8474997741680115,10.730497442814817,12.411026385826954,6.014594609102536,-4.946078942080095,4.929448564707764,-11.473277431409118,-0.137324911098538,-5.625419842085534,-4.83344046243029
32.43797081612861,-60.84047393753267,-4.903811908235046,31.097454173287495,4.792138885382175,-10.741474288610384,-8.847254521193621,8.058856607361427,-10.604909080850177,10.814593868736909,-6.781818116283506,16.307457487512355,3.8848861054095027,3.491417321218128,-11.29809116163114,-2.9364058843609495,0.823288240337423,-12.204637318114505,-1.8817685433288422,2.9826046885616244,-0.1876915667941388,-0.5165859124403885,9.556147078204448,-15.357605099556329,-1.3030767793345093,0.5003205089543695,-7.204536104177027,-5.397142258960281,0.07952334291954619,-4.0779387079412155,-5.100093796580049,17.038551738333833,-13.28994155553294,-4.007530719837787,0.35391985068711984,-7.630163094804726,-1.225822244359511,-3.3019279561441963,-9.103894553781686,-23.309599608371055,17.705229784921475,-5.847499540931776,10.446455614078154,10.943186120176666,-0.8068937839078791,-4.900885195719199,4.920779077635368,-10.451637919653152,-0.18018100362975215,-5.6177265609989195,-5.784910572415452
32.501632010663634,-60.89187647080399,-5.113969943037208,30.936847188910313,3.5654300585992003,-11.364044426256685,-8.898018222468847,8.067717441304229,-9.853192655147765,10.408302709046072,-6.838994207328321,11.361825031164246,3.7980819774154866,3.2781854270940154,-8.887410710632883,-2.9333949999207767,0.8225322182418648,-13.744812780004304,-1.7857732500327728,2.9710935972833408,-4.777342690530394,-0.5350592693173587,9.375818204800474,-13.463472084193185,-1.306586981989758,0.5010859193686763,-8.943320105757659,-5.651672998102399,0.11255867887910881,-6.718244522052249,-5.109402417049396,17.072984073355766,-11.890224547790694,-4.046745184282142,0.3620764077979623,-9.439946339350733,-1.3029132407277557,-3.2858914653322557,-10.137232686741843,-23.309599599210593,17.705229777964984,-5.847499538633557,10.440101864587227,12.457352861678592,0.12605245045878047,-4.944778827744954,4.935768705525009,-11.484047189824228,-0.24297323849127678,-5.606025963317406,-7.183096643193645
32.795478752436544,-60.898240158732385,-5.887283179531649,31.11189633077046,5.0706615065111915,-10.59555866381791,-8.889994596143515,8.06779075856197,-9.96597212297917,10.85067398603488,-6.767618969551527,16.765301217825712,3.9548539335578057,3.9645090124260047,-12.76550618767921,-2.933434219475834,0.8225790212589428,-13.719100277016057,-1.862222243735908,2.979048708960556,-1.1275650875114314,-0.4972354654032587,9.694549368890971,-17.85051812315849,-1.3050441219708724,0.5006696178231361,-8.168048832288125,-5.435122446704835,0.08642187126537568,-4.474382479301184,-5.112721199128131,16.71483754284636,-14.465797248825824,-4.0497543891278855,0.36150457703613675,-9.560511460215778,-1.3174997932597796,-3.283531860987213,-10.330308070357251,-23.309597938839815,17.70522851679918,-5.847499122109286,10.414123333950815,10.457065243576245,-1.7533335554882559,-5.009470589355413,4.947944999846996,-12.944438814917891,-0.11644084787259963,-5.620621075893662,-4.395024318325887
32.68800902508423,-60.91003238060202,-5.614994066751631,31.119307826253927,4.967439279549399,-10.65204447410721,-8.527347553805647,7.9882260016831275,-15.397626502153475,10.521394529517687,-6.851339123953815,12.681347863994663,3.9451868302016986,2.713606706356292,-14.638533911248064,-2.933405628692975,0.8225170790640035,-13.74653505648802,-1.8292330650774802,2.9793955018944023,-2.686078968883404,-0.5270017080394287,8.823779853178749,-19.686318104263943,-1.3041813529620714,0.5007273972528625,-7.766026325919129,-5.381417223271361,0.07937949514570761,-3.9167671979106315,-5.1213731759982135,16.451439744880048,-15.29900730192213,-4.044328096160643,0.3612984464779865,-9.319456956054658,-1.3803693061168183,-3.269928973952369,-11.175163179718874,-23.309598890188617,17.705229239416123,-5.847499360766442,10.475913851827679,10.315470259079005,-0.4689313026479961,-5.040598329347015,4.955848018883713,-13.659051975670604,-0.1208369656874873,-5.6252623373644,-4.474320413661438
33.43678087610243,-61.07741004472734,-7.71981398599635,30.975284350663873,3.5333413626474255,-11.389226269773271,-8.529806103678338,7.98706965654128,-15.366198839653876,10.221984879916164,-6.892917873941271,9.026199507413308,3.9804212211813272,2.94807622817616,-15.405603764732396,-2.931589266757911,0.8219636038034633,-14.692683447237455,-1.8087863063333498,2.9759148872273977,-3.6794025811285995,-0.4895560111695623,9.349559399196453,-22.350514851559456,-1.3063724604672555,0.5016002851218981,-8.91504832091023,-5.434992253354784,0.0861856956593906,-4.473099964462745,-5.118420435853129,16.293317486631263,-16.999382220779164,-4.086766177666048,0.37372601522841387,-11.339575598175443,-1.4172823891824728,-3.2598607783659186,-11.676786449269873,-23.309598709538104,17.705229102197567,-5.84749931544835,10.39196475722545,10.20069330690258,-2.2846075766474923,-5.090749752552429,4.981812294571677,-14.929245509719202,-0.13521816230421158,-5.616493273607696,-4.823164352469926
32.93505683592624,-60.9137900194869,-6.267801312360347,31.13645431664095,5.220142911011395,-10.520678099067219,-8.773103220798022,8.044261010129862,-11.709534118748588,10.843342858202773,-6.772866939082863,16.665014307136005,3.9551249121821037,3.7557847343072974,-13.121048041286395,-2.933781692979994,0.8227074318789255,-13.53666100660866,-1.8630071612170704,2.9807302049689963,-1.08251225273428,-0.49562369781783566,9.655113138820349,-18.48607317299609,-1.3047666646446228,0.5006425326340476,-8.034507187667703,-5.403296647318662,0.08148602594689403,-4.143177797803679,-5.1042268963215705,16.77852798106694,-14.949409646267776,-4.042892343959822,0.35992726160410915,-9.243812069447108,-1.3281337112643226,-3.2815709623484075,-10.472138336316537,-23.30959767483902,17.705228316274223,-5.847499055881206,10.413331155295925,10.21130763061693,-1.9352660851311547,-5.019348312973417,4.948183316668944,-13.15701563749832,-0.08884569122976353,-5.625941497407023,-3.777885791023006
34.15835774277012,-61.17261650166778,-9.700140493787364,31.051643214795632,4.283175231171213,-11.004131944704447,-8.567851691305885,7.996715679261166,-14.793128505393009,10.503093655064633,-6.8280897210492615,12.454945696916292,4.175936126872141,3.748039427378052,-20.609481937481124,-2.9242787865700417,0.8181148636700472,-18.885670319111508,-1.8055191330330596,2.976689920756451,-3.8302861983763052,-0.4494672077505545,9.899913674069467,-25.481352161431754,-1.322634185960655,0.5062486541662574,-17.165094160048955,-5.679073568899213,0.12112595766123486,-7.016340763511377,-5.101382596858056,16.156136663306985,-20.434787381776896,-4.168292350074997,0.40012678955138503,-15.248456359780498,-1.6054541687918478,-3.2171761021474943,-14.211771343036958,-23.309598300363326,17.70522879140418,-5.8474992128014405,10.271830974407258,9.535052575829292,-5.266200271751958,-5.12992318008689,4.9806545040146775,-15.737944428074771,-0.09559172709873803,-5.623880284855451,-3.9281128417576987
