41.30187,-64.6534,-33.231083,30.09098,-2.6757293,-14.481383,-6.8114147,6.9569826,-43.973385,6.013185,-5.5473104,-44.982822,4.8947854,2.8833873,-52.434166,-2.877563,0.67859435,-81.77595,-0.9870922,2.4999151,-49.72542,-0.44791356,8.79695,-41.428104,-1.3236752,0.4701984,-6.2367773,-5.2627754,0.040951945,-2.6407604,-4.7349796,17.156431,-69.13089,-5.072932,1.9608452,-105.613686,-4.11357,-1.5262628,-54.61221,-23.217623,17.585773,-5.8455405,7.852824,2.7577004,-74.08524,-6.9463277,8.00997,-102.44329,-1.789186,-4.8731136,-44.5997
40.795048,-64.155846,-31.46784,30.016705,-3.2892878,-14.814971,-6.9238296,7.0472593,-41.987095,6.0490303,-5.593784,-44.296223,4.847569,2.3203335,-51.77145,-2.8773582,0.68121195,-80.182434,-0.9870922,2.4999151,-49.73555,-0.48690113,8.208432,-39.58083,-1.327868,0.47028953,-8.469244,-5.2845798,0.043440033,-2.908792,-4.7953706,16.567543,-64.58168,-5.075867,1.9580538,-105.83997,-4.0697007,-1.5857896,-53.685177,-23.217623,17.585773,-5.8455405,7.9423256,3.1077955,-69.84339,-6.9640594,7.9063973,-100.06847,-1.7938195,-4.867496,-44.93712
40.480953,-63.793842,-30.055403,29.949928,-3.5560095,-14.943898,-6.874151,6.999657,-42.878857,5.9626546,-5.510196,-45.667793,4.9336085,2.3550622,-55.145134,-2.8617318,0.6432209,-106.71239,-0.8714885,2.356656,-58.571358,-0.44791356,8.595462,-41.65445,-1.3160307,0.4693668,-2.7806165,-5.0504465,0.037465364,-0.525201,-4.7836804,16.191402,-65.85864,-5.072789,1.9624503,-105.99447,-4.2178383,-1.3664278,-57.048943,-23.217623,17.585773,-5.8455405,7.90086,2.399065,-70.43505,-6.9433603,7.935577,-102.00047,-1.8441726,-4.8177567,-46.38065
40.42634,-63.705936,-29.578196,29.949163,-3.7171988,-15.025211,-6.840509,6.974464,-43.51838,5.838374,-5.330552,-48.33521,4.942648,1.1759421,-57.7909,-2.8626342,0.6432209,-107.04624,-0.8507471,2.330481,-60.202217,-0.46665382,8.208432,-42.49377,-1.3143711,0.4693668,-1.633739,-5.030336,0.037465364,-0.33208695,-4.7639837,16.549532,-67.263794,-5.072789,1.9624503,-105.893745,-4.284279,-1.2721481,-58.56061,-23.217623,17.585773,-5.8455405,7.92426,2.7599618,-69.951485,-6.944304,8.032638,-103.460175,-1.8395025,-4.821797,-46.29135
39.9601,-63.508587,-28.530794,29.8797,-4.0122094,-15.161781,-6.7931366,6.930399,-44.429806,5.8494687,-5.3496413,-47.924572,5.034749,1.0658158,-61.469765,-2.8617318,0.6432209,-106.452614,-0.8294292,2.2807899,-62.60304,-0.47642055,7.8661637,-44.12404,-1.3140185,0.4693668,-1.6381975,-4.8155775,0.037465364,1.6015595,-4.807362,15.645947,-70.13596,-5.072789,1.9608452,-105.613686,-4.2800307,-1.2851194,-58.489334,-23.217623,17.585773,-5.8455405,7.7830043,2.3921456,-74.627655,-6.938483,8.085554,-103.59831,-1.8368171,-4.8211894,-46.251415
40.212383,-63.706337,-29.359491,29.843071,-4.5625362,-15.342907,-6.7313356,6.8734016,-45.868824,5.6783524,-5.179929,-50.811443,5.0671473,0.69830245,-63.12971,-2.8617318,0.6432209,-106.452614,-0.80971116,2.2351193,-64.77897,-0.48016915,7.524681,-44.12404,-1.3129264,0.4693668,-1.2085779,-4.68688,0.040577427,3.0484507,-4.814786,15.406818,-72.51069,-5.072789,1.9608452,-105.613686,-4.357429,-1.1331037,-60.67775,-23.217623,17.585773,-5.8455405,7.7830043,1.7085313,-76.49493,-6.938483,8.085554,-103.59831,-1.8847061,-4.75193,-48.072475
39.97775,-63.52271,-28.645287,29.8797,-4.1077685,-15.213685,-6.7556834,6.887496,-45.346863,5.7223086,-5.206906,-50.21348,5.034749,0.40856126,-63.12971,-2.8617318,0.6432209,-106.452614,-0.80971116,2.2351193,-64.77897,-0.44827038,8.187433,-47.035725,-1.3110983,0.47572076,0.100974046,-4.6980233,0.040577427,3.0484507,-4.803078,15.473387,-73.39716,-5.072789,1.9608452,-105.613686,-4.3385787,-1.163725,-60.158287,-23.217623,17.585773,-5.8455405,7.769193,1.3162094,-79.23837,-6.938483,8.085554,-103.59831,-1.8594493,-4.794172,-46.953156
39.8924,-63.289112,-28.216436,29.95502,-3.376926,-14.875294,-6.8412614,6.974464,-43.572563,5.8450313,-5.2983027,-48.153683,5.001782,0.1547525,-62.372288,-2.8617318,0.6432209,-106.38864,-0.81634945,2.2556987,-64.11286,-0.44827038,8.350951,-44.09436,-1.3110983,0.4693668,0.100974046,-4.6980233,0.040577427,3.0484507,-4.781963,16.118307,-70.69748,-5.072789,1.9608452,-105.61121,-4.27642,-1.2911503,-58.39408,-23.217623,17.585773,-5.8455405,7.7830043,2.294804,-75.9651,-6.938483,8.085554,-103.59831,-1.885051,-4.75193,-48.072475
39.90636,-63.28871,-27.677608,30.09098,-2.5361426,-14.407553,-6.900969,7.013328,-42.49,6.0490303,-5.5733514,-44.572514,4.988538,1.1811827,-60.25973,-2.8626342,0.6432209,-107.04624,-0.8507471,2.330481,-60.280518,-0.46631533,8.181139,-43.215176,-1.3129264,0.4693668,-1.2085779,-4.6980233,0.040577427,3.0484507,-4.8500896,15.348668,-67.21582,-5.072789,1.9633547,-106.09697,-4.1489654,-1.4771659,-55.391647,-23.217623,17.585773,-5.8455405,7.9380093,2.0813391,-69.951485,-6.9487514,7.972253,-101.57983,-1.7866201,-4.877686,-44.612106
39.05655,-63.056805,-25.11175,30.171722,-2.1283445,-14.234913,-6.9646688,7.089345,-41.22772,6.05,-5.595484,-44.264088,4.9196486,1.1759421,-58.275944,-2.8662293,0.65112615,-103.955795,-0.874609,2.3544035,-58.906918,-0.4578478,8.501909,-42.079136,-1.3162702,0.4693668,-2.4642098,-4.9459395,0.037465364,0.5608597,-4.8538404,15.567758,-65.09216,-5.053261,1.9607695,-107.04346,-4.1086636,-1.5254122,-54.624786,-23.217623,17.585773,-5.8455405,8.05311,2.488902,-67.302475,-6.9555383,7.8416414,-99.545815,-1.7796693,-4.8960195,-44.14549
38.597492,-62.505665,-22.885368,30.190475,-1.7015473,-14.01869,-6.90082,7.013328,-42.484158,6.1949286,-5.7498755,-41.532475,4.958278,1.3508114,-58.648746,-2.8660245,0.6547439,-101.976555,-0.89449245,2.3690605,-57.911476,-0.48690113,7.9897127,-41.608395,-1.3135816,0.4693668,-1.4365426,-4.764315,0.040577427,2.4878929,-4.8611135,15.503637,-64.302246,-5.003922,1.7111588,-105.381546,-3.9545898,-1.7072433,-51.508987,-23.217623,17.585773,-5.8455405,8.166374,3.0063815,-64.179306,-6.9338374,7.705759,-98.12312,-1.6911653,-4.96141,-41.87098
39.05923,-63.056805,-25.117496,30.091745,-2.1087277,-14.230915,-7.0207276,7.131351,-40.009953,6.2390685,-5.794568,-40.916096,4.9375334,1.694904,-57.194477,-2.8634756,0.6547439,-101.97538,-0.8747025,2.3677692,-58.012222,-0.4481933,8.551475,-43.200592,-1.3179166,0.4693668,-3.6050994,-4.991442,0.037465364,0.108833015,-4.8317814,15.872976,-63.610004,-5.046441,1.8797125,-103.50008,-4.059867,-1.5873936,-53.593174,-23.217623,17.585773,-5.8455405,8.110058,2.6221972,-64.82937,-6.9357696,7.6791067,-96.69145,-1.7220649,-4.927011,-42.918842
39.05655,-63.056805,-25.11175,30.354809,-0.6681582,-13.499009,-7.212207,7.255733,-36.529747,6.303865,-5.888329,-39.69711,4.884526,1.9225718,-54.78802,-2.8773582,0.69301087,-78.895966,-0.91425836,2.4168239,-55.504227,-0.45756805,8.710545,-41.623974,-1.3253815,0.4701984,-7.2587543,-5.1112576,0.037465364,-1.1483377,-4.8721323,15.694663,-62.332985,-5.000414,1.6269871,-99.08791,-3.892653,-1.7473702,-50.693127,-23.217623,17.585773,-5.8455405,8.254836,2.3591552,-60.430874,-6.8866043,7.365113,-83.46107,-1.5524343,-5.026093,-38.8641
39.05655,-63.104317,-25.367704,30.454138,-0.096574545,-13.211837,-7.289269,7.3541956,-35.054752,6.4906907,-5.974721,-38.11322,4.8254232,1.8150342,-53.115494,-2.8773582,0.69301087,-78.82776,-0.960596,2.4783943,-53.027412,-0.4593205,8.708976,-41.00845,-1.3306572,0.4736163,-12.053247,-5.18896,0.039922673,-1.9604553,-4.890231,15.645947,-60.247707,-5.004806,1.5671725,-94.36105,-3.8708622,-1.7553762,-50.45699,-23.217623,17.585773,-5.8455405,8.307294,3.1889594,-56.84392,-6.8866043,7.180415,-78.965034,-1.5372725,-5.0445833,-38.49794
39.984203,-63.509468,-27.884296,30.245865,-1.2503611,-13.778453,-7.313891,7.397492,-34.655933,6.246743,-5.804518,-40.81273,4.8950458,1.4956254,-55.810833,-2.8773582,0.6882755,-79.54089,-0.92390084,2.4524374,-54.675537,-0.44791356,8.710428,-42.095535,-1.3324844,0.47426698,-12.951134,-5.2512717,0.08831178,-3.0704565,-4.783514,17.03456,-62.682827,-5.0021615,1.6330848,-100.51015,-3.9904876,-1.608512,-52.8101,-23.217623,17.585773,-5.8455405,8.222877,3.4364436,-60.97438,-6.8866043,7.4155383,-83.75258,-1.6942416,-4.9520106,-41.809227
39.665314,-63.28227,-27.167276,30.171722,-2.340859,-14.338861,-7.113167,7.21767,-38.33463,6.1831517,-5.729903,-41.85947,4.8715296,1.0631641,-55.517166,-2.8660245,0.66442513,-95.71726,-0.90439296,2.4074345,-55.87007,-0.47670242,8.350951,-39.8822,-1.324756,0.47297007,-8.948481,-5.1147327,0.03668567,-1.1736612,-4.806855,16.549532,-61.592907,-5.0021615,1.5904689,-97.43319,-3.8784058,-1.7484628,-50.52743,-23.217623,17.585773,-5.8455405,8.230823,3.8777995,-58.29031,-6.8866043,7.180415,-78.965034,-1.5237474,-5.06859,-37.760475
37.188267,-61.742672,-19.048075,29.78373,-4.301711,-15.342138,-7.9245205,7.736074,-24.287144,7.068567,-6.2794824,-28.516594,4.3460855,4.963672,-27.72816,-2.868179,0.7142845,-70.36808,-1.0438646,2.5531719,-44.92586,-0.45912406,9.4279995,-34.653812,-1.3699493,0.496132,-45.936935,-7.7768283,0.7953608,-30.091951,-4.941228,17.093704,-38.899338,-4.937524,1.2756464,-70.57752,-3.7097294,-2.0087087,-46.399605,-23.217623,17.585773,-5.8455405,8.57992,4.053831,-45.73829,-6.8866043,7.269695,-78.00832,-1.7043006,-4.9392333,-42.481564
31.938625,-61.55794,-4.6955457,30.064627,-2.9871914,-14.597378,-9.156768,8.055759,-5.6770425,8.977639,-6.8954086,-8.914546,3.6883233,1.602366,-9.144141,-2.950057,0.7861496,-21.814497,-1.5431545,2.8923109,-17.123482,-0.622194,8.356762,-13.677167,-1.3616519,0.48180196,-26.436739,-6.070316,0.16479756,-11.382011,-5.206464,17.093239,-11.289815,-4.3102627,0.4654293,-22.08808,-1.6151805,-3.221609,-14.051446,-23.217623,17.585773,-5.8455405,10.943319,14.268844,10.129351,-5.683846,5.225081,-29.776247,-0.45001176,-5.5893774,-10.985995
31.084755,-61.323208,-0.8879481,30.618484,0.9588873,-12.5744915,-9.081151,8.041834,-6.923545,9.470513,-6.9392824,-0.8734797,3.7339065,1.6087435,-10.632258,-2.950057,0.7861496,-22.104588,-1.5871701,2.8950748,-15.993863,-0.6604876,7.5341144,-12.793691,-1.3436642,0.47665516,-19.487324,-5.939779,0.1154068,-9.6212635,-5.2724996,15.81969,-13.742593,-4.231289,0.46041605,-19.11429,-1.4833336,-3.2574213,-12.2561655,-23.217623,17.585773,-5.8455405,10.694229,13.82236,3.8327441,-5.6624484,5.235764,-29.33003,-0.35009554,-5.601484,-8.918462
32.906082,-61.559032,-7.296908,30.822447,1.7318722,-12.210529,-8.952395,8.033883,-8.843566,9.6775875,-6.9455023,2.4055066,3.8030028,2.2405841,-11.1513605,-2.954606,0.78983724,-15.851703,-1.5991255,2.8875344,-16.017738,-0.6425738,7.5981307,-16.286253,-1.3436642,0.47665516,-19.546936,-5.788375,0.101632364,-8.138979,-5.2724996,15.827438,-15.712731,-4.231289,0.46041605,-19.11429,-1.4733244,-3.2555566,-12.168339,-23.217623,17.585773,-5.8455405,10.612253,12.473908,1.1721663,-5.6613183,5.235764,-29.33003,-0.31220123,-5.6058154,-8.102789
33.386654,-61.55962,-8.718248,30.245865,-1.6701707,-13.986079,-8.656029,7.966499,-13.586732,9.8726225,-6.8818417,4.242666,3.8749285,3.161952,-11.822612,-2.9545717,0.7910496,-11.276607,-1.755554,2.9342024,-7.0940876,-0.58399105,8.869744,-16.19552,-1.3398128,0.47547045,-16.346663,-5.439167,0.06176965,-4.5061927,-5.1932683,17.03965,-14.299284,-4.157591,0.34763458,-14.133949,-1.3051674,-3.3035023,-9.899803,-23.217623,17.585773,-5.8455405,10.694229,14.009131,4.6283107,-5.3665953,5.0392404,-21.666162,-0.3361497,-5.6061993,-8.628678
33.314365,-61.175816,-8.274981,30.456882,0.20250294,-13.036917,-8.204794,7.817387,-20.181961,10.235271,-6.638946,8.77966,3.9211707,1.3885534,-18.227585,-2.920873,0.77645946,-29.088282,-1.5519277,2.865134,-18.661427,-0.6225137,7.231586,-20.421299,-1.3179166,0.4693668,-3.740365,-5.2503495,0.040386837,-2.5228977,-5.1082706,16.070616,-22.721289,-4.2177258,0.4542967,-18.609293,-1.5637414,-3.1843033,-15.940591,-23.217623,17.585773,-5.8455405,9.887784,10.163022,-14.024224,-5.547234,5.2062497,-26.709702,-0.29293337,-5.6003304,-8.352263
34.482376,-61.589386,-11.677067,30.562975,1.3062329,-12.487838,-7.97905,7.7398295,-23.490664,9.762756,-6.597134,1.776743,4.0215445,2.0057337,-20.879337,-2.9149082,0.7653224,-33.931335,-1.50314,2.849517,-21.381853,-0.61781925,7.297761,-20.412891,-1.3219614,0.4694252,-5.4333076,-5.513943,0.061234254,-5.204718,-5.0776467,16.273685,-25.549091,-4.4122887,0.5035044,-29.14751,-1.9745663,-3.0410285,-20.507732,-23.217623,17.585773,-5.8455405,9.976621,9.903218,-13.137268,-5.680234,5.208064,-30.000158,-0.53212714,-5.5059047,-12.3322525
33.41217,-60.921486,-8.418648,30.652586,1.7754471,-12.260864,-8.319426,7.8726416,-18.523691,10.295684,-6.6509156,10.323902,4.0126176,2.7092838,-19.627323,-2.9149082,0.7748389,-30.248398,-1.5543905,2.865134,-18.218765,-0.618063,7.7115946,-16.55209,-1.3224736,0.47013116,-5.848241,-5.47606,0.05915373,-4.980426,-5.099997,16.396214,-19.159101,-4.2395597,0.4795652,-19.355476,-1.5360243,-3.1970348,-13.822028,-23.217623,17.585773,-5.8455405,10.225853,10.201693,-5.7125583,-5.1810946,4.968595,-17.887175,-0.18049908,-5.6087756,-5.5462403
33.025932,-60.64147,-6.9560885,30.703033,2.5965333,-11.843519,-8.52988,7.930686,-15.201299,10.513269,-6.79331,13.033655,3.883691,2.1591082,-15.888306,-2.939748,0.78609884,-20.166199,-1.71686,2.9146712,-9.4658,-0.5792924,8.707148,-16.021471,-1.3164272,0.4693668,-2.8857718,-5.3389816,0.048026964,-3.5351498,-5.080853,17.151793,-14.148616,-4.032994,0.34477884,-8.5073185,-1.2015302,-3.321526,-8.373872,-23.217623,17.585773,-5.8455405,10.491718,10.375706,1.397668,-4.890173,4.8626175,-10.061396,-0.00956933,-5.634425,-1.4634169
32.422356,-60.52828,-5.433719,30.896759,4.7462893,-10.7278595,-8.6560135,7.9563794,-13.252492,10.643625,-6.831896,15.128258,3.8479483,1.8685391,-15.110048,-2.939748,0.78619015,-19.836535,-1.7382641,2.927524,-8.913134,-0.60396624,8.036769,-16.033686,-1.3199996,0.4693668,-4.418755,-5.3372526,0.048026964,-3.5351498,-5.1754985,16.049337,-10.880842,-3.9989698,0.3227033,-7.1478744,-1.2082261,-3.3190634,-8.465866,-23.217623,17.585773,-5.8455405,10.697292,9.615109,5.9112334,-4.852442,4.8529043,-9.254003,-0.019833429,-5.634531,-1.6191475
32.603516,-60.602676,-5.9341893,30.82019,3.7125092,-11.260011,-8.674584,7.967552,-12.864624,10.50237,-6.8660727,13.384559,3.8556619,1.4939601,-15.718074,-2.9444296,0.79018664,-14.512726,-1.6991514,2.9264786,-10.094273,-0.62457854,7.497284,-15.935497,-1.3179166,0.4693668,-3.9307742,-5.258669,0.040386837,-2.5859125,-5.24033,15.037216,-11.614678,-4.01759,0.32459328,-7.8414593,-1.2524078,-3.312906,-9.047346,-23.217623,17.585773,-5.8455405,10.570984,8.786652,2.29079,-5.0867805,4.9058175,-14.606797,-0.12445525,-5.628632,-3.7990637
33.413216,-60.80303,-8.141433,30.663761,1.8434807,-12.20805,-8.760876,7.9833937,-11.573973,10.481477,-6.841243,13.135832,3.8926525,2.2922606,-15.743994,-2.9468849,0.7903486,-13.346898,-1.7879802,2.9325984,-6.5726566,-0.5792924,8.451466,-16.962673,-1.318369,0.4693668,-4.166005,-5.0990667,0.037465364,-0.93230134,-5.178845,15.791972,-13.226276,-4.0476556,0.33079705,-9.206832,-1.3459475,-3.298432,-10.382939,-23.217623,17.585773,-5.8455405,10.374152,8.581884,-2.6272032,-5.127912,4.9434524,-16.500927,-0.22196999,-5.610795,-6.0134997
32.90521,-60.746067,-6.672968,30.769938,3.204168,-11.516506,-8.674935,7.967552,-12.864624,10.610036,-6.8258057,14.6544695,3.9207118,2.4351625,-15.546443,-2.9497943,0.79122275,-11.672719,-1.839281,2.9380376,-3.3242419,-0.5794652,8.391618,-18.245785,-1.3215398,0.4693668,-5.775871,-5.1623354,0.0376342,-1.6154252,-5.172555,15.7462225,-14.913582,-4.0345707,0.32685217,-8.5267,-1.2100667,-3.3206937,-8.582145,-23.217623,17.585773,-5.8455405,10.328234,8.9262905,-3.4856002,-5.062213,4.9063497,-14.17948,-0.13279797,-5.6277485,-4.064339
33.379093,-60.7502,-8.028603,30.883656,4.2763853,-10.956783,-8.579778,7.9452577,-14.305582,10.576278,-6.851156,14.257636,3.891583,1.9737484,-15.642723,-2.9502268,0.7910739,-11.152417,-1.892965,2.9399934,-0.6116629,-0.5661929,8.586513,-18.218866,-1.3179166,0.4693668,-4.0308323,-5.1629243,0.0376342,-1.6419733,-5.0544577,17.227009,-16.319841,-4.0070024,0.32282618,-7.233956,-1.050632,-3.3416378,-5.9819345,-23.217623,17.585773,-5.8455405,10.191437,9.679941,-5.8262053,-4.97451,4.8808894,-12.062698,-0.06151854,-5.6326118,-2.548681
33.6894,-60.672,-8.945652,30.768356,3.7445812,-11.288022,-8.724475,7.973626,-12.191995,10.539674,-6.8921347,14.152429,3.9224977,2.5279384,-15.460347,-2.9492104,0.7907439,-11.705798,-1.9308997,2.9399934,1.2467384,-0.51750106,9.789419,-17.16527,-1.3179166,0.4693668,-4.027268,-5.2258525,0.03934663,-2.2508838,-4.9907737,18.17918,-15.179781,-3.9901943,0.32032368,-6.4402475,-0.9966569,-3.3469145,-5.745919,-23.217623,17.585773,-5.8455405,10.22091,10.74351,-4.106028,-4.854018,4.8529043,-9.242618,-0.08499087,-5.632077,-3.0706403
33.94626,-60.807796,-9.53219,30.77868,3.4701505,-11.373216,-8.693227,7.968786,-12.5844965,10.432878,-6.874994,12.434338,3.9698176,2.9429545,-16.775656,-2.9489958,0.7908261,-12.002725,-1.9037874,2.938848,-0.14176333,-0.4962053,9.979139,-19.792494,-1.3226502,0.4694252,-5.92133,-5.367363,0.046902347,-3.7716649,-5.001067,17.90902,-16.901081,-4.007348,0.32370144,-7.491155,-1.1344166,-3.3295217,-7.586852,-23.217623,17.585773,-5.8455405,10.210113,10.600849,-4.368712,-4.8093724,4.8465624,-8.276695,-0.14209713,-5.627845,-4.434304
34.183495,-60.921795,-10.306769,30.747162,2.9029725,-11.669817,-8.74381,7.9833937,-11.825633,10.370898,-6.8587093,11.884861,4.0304737,2.2647235,-20.240074,-2.9440255,0.79018664,-14.753557,-1.8322251,2.9380376,-4.102643,-0.4988236,9.705059,-21.679344,-1.3219614,0.4694252,-5.7586617,-5.3531237,0.04555832,-3.5991924,-5.0179214,17.50405,-18.822075,-4.052436,0.33079705,-9.265935,-1.230528,-3.318198,-8.816325,-23.217623,17.585773,-5.8455405,10.210113,9.34489,-5.2765045,-4.821382,4.8484936,-8.521998,-0.16049016,-5.6272936,-4.630301
34.496407,-60.999428,-11.069894,30.739666,2.679742,-11.794406,-8.648181,7.967552,-13.18757,10.269894,-6.7997413,10.2738495,4.058487,2.1954694,-21.234547,-2.9393969,0.78609884,-20.795506,-1.730753,2.9172578,-8.792743,-0.50701576,9.378107,-22.937191,-1.3303165,0.47395113,-13.236165,-5.7578692,0.10707352,-8.030872,-4.9880595,17.761374,-19.950157,-4.104544,0.42256847,-11.817135,-1.4091132,-3.2699163,-11.198654,-23.217623,17.585773,-5.8455405,10.185351,9.439486,-5.182531,-4.7812347,4.8460236,-7.6489315,-0.09632707,-5.630638,-3.374763
33.539593,-60.878014,-8.405634,30.82019,3.551422,-11.3346,-8.744728,7.9833937,-11.816876,10.433851,-6.860606,12.532245,3.9545033,2.9010859,-16.183424,-2.9522722,0.79144543,-10.824053,-1.8988428,2.9399934,-0.29313526,-0.50645536,9.703218,-20.459717,-1.324217,0.46949244,-6.6791015,-5.4297743,0.05101284,-4.418398,-5.034026,17.426186,-16.82142,-4.016728,0.32370144,-7.77688,-1.1750265,-3.3276262,-8.123641,-23.217623,17.585773,-5.8455405,10.29077,9.85064,-2.7637491,-4.7732873,4.8432727,-7.414076,-0.060700316,-5.633337,-2.482905
33.58494,-60.756027,-8.591074,30.723616,2.6010644,-11.815868,-8.683802,7.9683175,-12.788073,10.413471,-6.896112,12.184044,3.972078,2.5717473,-17.016754,-2.9529042,0.79144543,-10.747302,-1.8874137,2.9399934,-0.9588007,-0.50701576,9.584714,-20.93895,-1.3235554,0.46949244,-6.779143,-5.3378215,0.044314194,-3.419955,-5.071897,16.923542,-16.978477,-4.0160623,0.32282618,-7.526876,-1.194027,-3.323765,-8.343133,-23.217623,17.585773,-5.8455405,10.32614,9.679941,-2.4703355,-4.8439655,4.8529043,-9.011432,-0.0026928873,-5.635051,-1.3204001
33.63957,-60.756027,-8.751511,30.775965,3.4273863,-11.400873,-8.605202,7.9517097,-13.884305,10.372593,-6.8816333,11.884962,3.972078,2.5251436,-17.600714,-2.949294,0.7910739,-12.37239,-1.8598273,2.9399934,-2.1036215,-0.50701576,9.545268,-21.607323,-1.3254565,0.46958357,-7.6105595,-5.329165,0.044314194,-3.3297727,-5.058483,16.96902,-17.78263,-4.0259643,0.32409474,-8.056255,-1.2705791,-3.3118732,-9.32778,-23.217623,17.585773,-5.8455405,10.261138,9.7870865,-3.6276133,-4.8286176,4.850767,-8.665592,0.04713045,-5.635139,-0.27585638
34.50668,-61.001072,-11.090743,30.68598,2.3546433,-11.952341,-8.501495,7.9218526,-15.470937,10.30796,-6.867576,10.902453,3.996413,2.8318417,-17.82958,-2.9493167,0.7909383,-12.375233,-1.88173,2.9399934,-1.1592593,-0.48952615,9.961214,-20.805649,-1.3233345,0.46949244,-6.694127,-5.27367,0.040951945,-2.760466,-5.0345936,17.325567,-17.92503,-4.024661,0.32399675,-7.916882,-1.1943728,-3.323765,-8.3645525,-23.217623,17.585773,-5.8455405,10.312389,10.1883335,-2.6191514,-4.823394,4.8484936,-8.539466,0.029927084,-5.635139,-0.62956524
34.497738,-61.0471,-11.096443,30.752657,2.8788993,-11.67467,-8.580826,7.9452577,-14.212074,10.364926,-6.8605185,11.612239,4.095532,2.4471202,-21.923223,-2.9438593,0.7898778,-15.441422,-1.8235724,2.9386468,-3.8689036,-0.47904325,9.848175,-24.586298,-1.3264408,0.46958357,-8.110841,-5.283633,0.041972697,-2.8876722,-5.0014706,17.229317,-22.485744,-4.052058,0.32903683,-9.243424,-1.1858388,-3.323661,-8.285315,-23.217623,17.585773,-5.8455405,10.208736,9.221873,-5.2366743,-4.880533,4.859231,-9.875437,0.04713045,-5.635139,-0.27564996
33.418934,-60.616184,-8.129811,30.863415,3.8414552,-11.177852,-8.60373,7.9517097,-13.906,10.521947,-6.819999,13.637624,4.0086,2.0492096,-19.599644,-2.949042,0.7909383,-11.670427,-1.8167971,2.9369528,-3.9927804,-0.49893788,9.647998,-22.318811,-1.3240765,0.46949244,-6.8591633,-5.3140597,0.043440033,-3.192973,-5.0582776,16.957636,-18.040615,-4.016338,0.32339838,-7.703594,-1.2079343,-3.3209748,-8.566276,-23.217623,17.585773,-5.8455405,10.325857,8.337255,-3.0203025,-4.809945,4.8465624,-8.278457,0.05653505,-5.635139,-0.014974521
33.027264,-60.6795,-7.029923,30.82019,3.5074108,-11.339855,-8.651643,7.967552,-13.191137,10.688812,-6.7353716,16.40724,3.9878795,2.8993173,-17.152607,-2.9503021,0.79122275,-11.386855,-1.8429564,2.938221,-2.922276,-0.48993397,9.771679,-22.995892,-1.3254565,0.47028953,-7.5770698,-5.4481664,0.052981637,-4.5634055,-5.101531,16.342268,-18.042013,-4.014951,0.32409474,-7.7129006,-1.197785,-3.321406,-8.403705,-23.217623,17.585773,-5.8455405,10.4073925,8.088725,-1.3919402,-4.9131646,4.8665323,-10.640254,-0.06916361,-5.6326413,-2.78363
33.305763,-60.67901,-7.8344555,30.920094,4.55912,-10.815,-8.704415,7.973626,-12.372602,10.533341,-6.79674,13.8098545,3.9943068,2.5742986,-18.144684,-2.9500363,0.79122275,-11.606773,-1.8273615,2.9385011,-3.7311947,-0.51025045,9.450409,-22.034264,-1.3266238,0.46958357,-8.1468,-5.3972535,0.048239022,-4.0754867,-5.093434,16.60759,-16.555212,-4.0554314,0.33042333,-9.443406,-1.2482545,-3.312906,-9.162494,-23.217623,17.585773,-5.8455405,10.518616,8.762192,1.3275596,-4.912538,4.8665323,-10.622132,-0.11900685,-5.6296496,-3.933781
33.78122,-60.801384,-9.041762,30.908031,4.4112716,-10.874423,-8.759239,7.9856067,-11.706878,10.506946,-6.809946,13.104973,4.0238047,2.814163,-18.666786,-2.9514503,0.7913388,-11.3152685,-1.8874137,2.9399934,-0.9334339,-0.48969704,9.774093,-22.546345,-1.3245047,0.46949244,-7.2236576,-5.327917,0.043440033,-3.3309224,-5.0758123,16.727484,-17.95741,-4.0260496,0.32409474,-8.06488,-1.2216469,-3.319857,-8.789769,-23.217623,17.585773,-5.8455405,10.36853,8.810947,-1.9255702,-4.947179,4.869686,-11.393031,-0.09809061,-5.6314254,-3.432039
34.34833,-60.92015,-10.833627,30.920094,4.5672565,-10.803826,-8.566832,7.9452577,-14.441409,10.298517,-6.9053826,10.436581,4.019818,2.483171,-18.679825,-2.9494548,0.7909383,-12.338812,-1.9308997,2.9399934,1.1597672,-0.5030121,9.418179,-23.770327,-1.3298384,0.46985614,-9.489135,-5.40373,0.048239022,-4.1391115,-5.1073394,16.26897,-17.890076,-4.0451245,0.32685217,-8.937967,-1.2589979,-3.315048,-9.214223,-23.217623,17.585773,-5.8455405,10.3771925,9.103273,-1.5188633,-5.062197,4.8940578,-13.988815,-0.070301436,-5.6329193,-2.75656
33.289772,-60.59652,-7.6390324,30.90699,4.3782916,-10.89205,-8.449702,7.9038053,-16.197254,10.205461,-6.914766,9.686704,4.044277,2.7578077,-19.279745,-2.9490564,0.7908261,-12.282788,-1.9141984,2.9399934,0.29913422,-0.4854864,9.897127,-22.64823,-1.3219614,0.4694252,-6.1181297,-5.2891397,0.0418114,-2.9147472,-5.070914,16.72031,-18.057516,-3.977386,0.3194082,-5.7753315,-1.1069487,-3.3356283,-7.1984158,-23.217623,17.585773,-5.8455405,10.206154,9.902458,-4.5039663,-5.0110064,4.882906,-12.816335,-0.02710811,-5.6345015,-1.8035935
33.065453,-60.55289,-7.333742,30.920094,4.846549,-10.662315,-8.57953,7.946311,-14.165158,10.3624115,-6.8867292,11.674425,4.0195537,2.5251017,-18.495283,-2.95283,0.7913388,-9.934388,-1.9367195,2.9399934,1.274529,-0.4858942,9.958395,-22.006094,-1.3199996,0.4693668,-5.1141996,-5.1761417,0.03799023,-1.7604905,-5.072939,16.833752,-16.285818,-3.9514883,0.31857622,-4.683237,-1.0108709,-3.3457494,-5.926734,-23.217623,17.585773,-5.8455405,10.32614,9.7977705,-1.8617674,-4.9102345,4.8626175,-10.560348,-0.011633797,-5.634831,-1.5180085
32.72491,-60.572807,-6.249782,30.965246,5.368559,-10.389688,-8.354134,7.869222,-17.666712,10.217439,-6.91067,9.656744,3.9899857,2.6773553,-17.021458,-2.95283,0.7913388,-10.060146,-1.9272872,2.9399934,1.0472243,-0.49893788,9.647576,-21.732508,-1.3209654,0.4693668,-5.4861913,-5.2402554,0.039785,-2.430962,-5.071181,16.757868,-17.013697,-3.9345753,0.31857622,-3.842498,-1.0367457,-3.3433828,-6.2687664,-23.217623,17.585773,-5.8455405,10.289591,10.597596,-2.174028,-4.9759526,4.8761487,-12.031992,0.07019805,-5.635139,0.3628659
32.6786,-60.69157,-6.0542254,30.95018,4.5712347,-10.809154,-8.308115,7.8544073,-18.283033,10.169405,-6.917609,9.21713,3.971814,2.2240112,-17.454779,-2.9573243,0.79161215,-8.186428,-1.8720123,2.9399934,-1.5323157,-0.54895496,8.329063,-23.06438,-1.3240765,0.46949244,-6.904958,-5.171463,0.03783761,-1.737608,-5.1677527,15.288805,-18.730646,-4.011666,0.3227033,-7.3897824,-1.1260271,-3.3320212,-7.590381,-23.217623,17.585773,-5.8455405,10.227149,9.200128,-4.5039663,-5.0092173,4.882906,-12.783963,0.13259453,-5.6341896,1.6641821
32.72033,-60.667004,-6.1530514,30.87291,4.0299363,-11.078582,-8.242835,7.8499312,-19.306364,10.14156,-6.921904,8.839109,4.067013,2.6620715,-20.012598,-2.9522722,0.79144543,-10.922163,-1.8438027,2.9397404,-2.9808664,-0.5339476,8.5398035,-25.031847,-1.3284541,0.46985614,-9.231824,-5.2850146,0.0418114,-2.9054275,-5.159112,15.360868,-19.330694,-4.033299,0.32540554,-8.313946,-1.1858423,-3.3256376,-8.280137,-23.217623,17.585773,-5.8455405,10.227149,8.398461,-5.17304,-5.015252,4.882906,-12.907875,-0.0021495686,-5.635051,-1.2919258
33.302124,-60.801384,-7.800299,30.863415,3.7752752,-11.225923,-8.215017,7.837134,-19.685444,10.22607,-6.898401,10.054996,4.044277,2.3986602,-19.702734,-2.9530857,0.79152757,-10.506518,-1.8720123,2.9399934,-1.5323157,-0.51575565,9.046604,-24.231684,-1.3254565,0.46958357,-7.8482604,-5.3535285,0.045492593,-3.609669,-5.087878,16.4872,-19.543142,-4.038606,0.32582796,-8.603175,-1.1958559,-3.323765,-8.397411,-23.217623,17.585773,-5.8455405,10.251986,11.03695,-3.6677918,-5.021363,4.889347,-13.091663,-0.0021495686,-5.635084,-1.1905583
32.929905,-60.63177,-6.8418393,30.863415,3.773374,-11.231527,-8.23062,7.848828,-19.55087,10.390856,-6.8670487,11.78777,4.1012163,3.795362,-19.389406,-2.9489512,0.7909383,-12.678676,-1.883043,2.9399934,-1.0443767,-0.47916222,9.882761,-23.39712,-1.324217,0.46949244,-7.0688677,-5.305974,0.04257439,-3.0936062,-5.049942,17.091906,-18.534426,-4.0283365,0.32459328,-8.184139,-1.1504818,-3.3305957,-7.793656,-23.217623,17.585773,-5.8455405,10.310511,11.467455,-1.8867377,-4.946933,4.869686,-11.382882,-0.070301436,-5.6329193,-2.75656
32.88298,-60.649937,-6.6344843,30.723616,2.521625,-11.873204,-8.2052555,7.8281693,-20.044159,10.390856,-6.86767,11.838933,4.145275,3.906235,-20.671701,-2.9476292,0.79077387,-13.369186,-1.8698825,2.9399934,-1.9122415,-0.47620678,9.9148655,-24.582561,-1.3240765,0.46949244,-6.920869,-5.3197966,0.043218017,-3.2453601,-5.03951,17.118235,-19.919365,-4.0164886,0.32282618,-7.6119375,-1.1409302,-3.3309777,-7.6971917,-23.217623,17.585773,-5.8455405,10.261138,11.631937,-2.7292607,-4.9211473,4.8665323,-10.787562,-0.07520538,-5.6325755,-2.885423
32.613594,-60.601032,-5.9675865,30.762981,2.8738196,-11.67012,-8.1313925,7.799445,-21.145052,10.439289,-6.8713713,12.457951,4.125638,3.5368724,-20.671701,-2.9484355,0.7909383,-13.080099,-1.891015,2.9399934,-0.80571246,-0.49681583,9.417989,-24.725443,-1.3235554,0.46949244,-6.749558,-5.2945395,0.041972697,-2.9819252,-5.1272793,15.893073,-19.330694,-4.0084805,0.32216382,-7.2232814,-1.1077828,-3.3355417,-7.2144465,-23.217623,17.585773,-5.8455405,10.374017,11.095477,-0.7131847,-4.9197617,4.8665323,-10.733125,0.01379159,-5.635139,-1.0516175
32.6795,-60.527626,-6.0891156,30.747162,2.9014854,-11.693356,-8.142935,7.799445,-20.972103,10.450123,-6.8641267,12.635103,4.145275,3.3355033,-21.52977,-2.9492104,0.7908261,-11.67269,-1.8988428,2.9399934,-0.29313526,-0.49030757,9.525124,-25.023726,-1.3209654,0.4693668,-5.3918834,-5.2784142,0.041313432,-2.8090725,-5.1145096,15.983156,-18.730646,-4.0043874,0.32174295,-7.0817995,-1.0834318,-3.3384464,-6.8747015,-23.217623,17.585773,-5.8455405,10.392335,10.890472,0.043726273,-4.9475594,4.869686,-11.401004,0.01379159,-5.635139,-1.0778152
32.18954,-60.52204,-4.745736,30.739666,2.6450863,-11.809843,-8.196832,7.8240113,-20.153095,10.586428,-6.8259797,14.278687,4.124249,3.4979913,-20.563501,-2.9534883,0.79152757,-9.548654,-1.8811532,2.9399934,-1.2134802,-0.51338816,8.997592,-25.023726,-1.318369,0.4693668,-4.2055516,-5.2769322,0.041313432,-2.800496,-5.098623,16.23601,-19.330694,-3.9877315,0.3200524,-6.3055596,-1.0614922,-3.3408697,-6.586546,-23.217623,17.585773,-5.8455405,10.374017,10.624283,-0.5448382,-4.9753003,4.8761487,-12.021279,0.10413478,-5.6349554,1.0507659
32.156307,-60.5156,-4.5947547,30.715403,2.430389,-11.90523,-8.249157,7.8420253,-19.348198,10.545278,-6.843653,13.710254,4.08577,3.622448,-18.994429,-2.9545255,0.79152757,-9.408041,-1.8874137,2.9399934,-0.85554487,-0.4961739,9.422314,-24.560898,-1.319117,0.4693668,-4.4691834,-5.211022,0.03875187,-2.1445253,-5.0655017,16.68873,-19.016457,-3.956957,0.31857622,-4.8987107,-0.9606633,-3.3505728,-5.2513924,-23.217623,17.585773,-5.8455405,10.310511,11.410087,-1.4620098,-4.942142,4.869686,-11.27942,0.1709626,-5.633013,2.5155375
32.379257,-60.573154,-5.150014,30.769938,3.1058772,-11.569976,-8.179024,7.821689,-20.257105,10.394463,-6.892055,11.779133,4.1001334,3.2501721,-20.109182,-2.956738,0.79161215,-8.60526,-1.8811532,2.9399934,-1.2735729,-0.50332284,9.232683,-24.717321,-1.3185852,0.4693668,-3.7975802,-5.1832685,0.03799023,-1.882596,-5.028598,17.20584,-19.671812,-3.9514883,0.31857622,-4.683237,-1.0108709,-3.3457494,-5.915007,-23.217623,17.585773,-5.8455405,10.256743,11.49589,-2.7033226,-4.947179,4.869686,-11.393031,0.1709626,-5.633013,2.5155375
32.357914,-60.5246,-5.1805096,30.883656,4.276075,-10.956507,-8.207257,7.829914,-19.99442,10.316244,-6.9081573,10.74482,4.1465507,2.7680395,-22.794508,-2.9499269,0.79122275,-12.043867,-1.8382274,2.9395716,-3.0420237,-0.4991343,8.988062,-27.579865,-1.3212247,0.4693668,-5.557545,-5.23054,0.03934663,-2.3072865,-5.085258,16.060873,-21.987015,-3.9975321,0.3212013,-6.8505325,-1.2021303,-3.3224065,-8.461704,-23.217623,17.585773,-5.8455405,10.15688,10.50084,-5.3710465,-5.07316,4.901996,-14.226616,0.1709626,-5.633013,2.513087
32.92818,-60.60778,-6.835495,30.810984,3.3727174,-11.422861,-8.246404,7.8499312,-19.317234,10.064724,-6.9381933,8.043643,4.183692,3.827574,-22.143291,-2.9526281,0.79144543,-10.844994,-1.8337781,2.939183,-3.3593185,-0.44734347,9.909596,-29.0629,-1.3254565,0.46958357,-7.8482604,-5.2626925,0.040386837,-2.621747,-5.0985146,15.685149,-23.942757,-4.0490685,0.32804358,-9.179346,-1.2911258,-3.3087018,-9.666486,-23.217623,17.585773,-5.8455405,10.09203,9.928709,-7.1788893,-5.1684093,4.9260774,-16.448904,0.1709626,-5.633013,2.513087
33.068176,-60.676254,-7.232332,30.810984,3.0608203,-11.583161,-8.125175,7.7989345,-21.159887,10.087165,-6.931679,8.31747,4.095318,3.1580167,-20.101583,-2.9550068,0.79161215,-9.400183,-1.8499277,2.939868,-2.6534638,-0.45826274,9.957631,-27.118809,-1.3214755,0.4693668,-5.7053714,-5.25746,0.040386837,-2.5935378,-5.043112,16.672258,-22.000757,-4.004199,0.32174295,-7.0576954,-1.2437596,-3.3172638,-8.963814,-23.217623,17.585773,-5.8455405,10.206154,10.533,-4.307397,-5.1107206,4.907255,-15.0675,0.15410657,-5.633423,2.1189344
33.0373,-60.64147,-7.0275393,30.82019,3.7394288,-11.23982,-8.201521,7.8266807,-20.050642,10.068189,-6.9182067,8.178336,4.0981126,3.0724285,-20.55542,-2.9501843,0.7910739,-11.080807,-1.8479292,2.9397404,-2.73297,-0.456998,9.957631,-28.144812,-1.3219614,0.4694252,-6.0953913,-5.28499,0.0418114,-2.8398755,-5.063521,16.298254,-22.744791,-4.0311975,0.32540554,-8.279532,-1.2793243,-3.310077,-9.527622,-23.217623,17.585773,-5.8455405,10.172602,10.655712,-4.736589,-5.086589,4.901996,-14.507194,0.07946038,-5.635139,0.41912785
33.039936,-60.677856,-7.025189,30.752657,2.8671215,-11.682685,-8.200294,7.828008,-20.15282,10.156044,-6.9117894,9.115457,4.085411,3.4910097,-19.389406,-2.9511416,0.79122275,-11.770122,-1.8590612,2.9399934,-2.1735713,-0.47916222,9.771508,-24.39555,-1.3226502,0.4694252,-6.238933,-5.305974,0.04257439,-3.0936062,-5.0428967,16.936342,-20.383593,-4.011666,0.3227033,-7.4643264,-1.1538955,-3.3291209,-7.8540792,-23.217623,17.585773,-5.8455405,10.32614,10.8298025,-1.8482399,-5.006806,4.882906,-12.738208,-0.02710811,-5.634572,-1.710185
33.48695,-60.748554,-8.251722,30.74067,2.736552,-11.745013,-8.275597,7.8499312,-18.941143,10.172673,-6.9225445,9.245619,4.0706377,2.8323777,-19.875513,-2.9489071,0.7908261,-12.775879,-1.8596194,2.9399934,-2.020384,-0.4755864,9.991246,-24.231684,-1.3266238,0.46958357,-8.436141,-5.3707767,0.046181113,-3.7839043,-5.0448627,17.046883,-18.871202,-4.033299,0.32540554,-8.322788,-1.2224455,-3.319857,-8.775305,-23.217623,17.585773,-5.8455405,10.310511,11.557178,-1.6887572,-4.98264,4.8761487,-12.176556,-0.09175559,-5.631521,-3.282253
33.0699,-60.676254,-7.232332,30.769938,3.2944093,-11.466586,-8.181198,7.8247747,-20.342295,10.153776,-6.918342,9.108058,4.067013,2.4848595,-20.325941,-2.9482005,0.7908261,-13.110114,-1.8598013,2.9399934,-2.0801969,-0.456998,10.148724,-25.939054,-1.3254565,0.46958357,-7.797213,-5.392873,0.04815941,-4.0441117,-5.0499945,16.726046,-21.116385,-4.0249705,0.32459328,-8.063899,-1.2420231,-3.3172638,-8.957791,-23.217623,17.585773,-5.8455405,10.323666,11.290928,-1.6181909,-5.091442,4.9058175,-14.64963,-0.0430229,-5.6339474,-2.191102
33.181973,-60.711258,-7.555246,30.863415,3.8003564,-11.203025,-8.1944065,7.828008,-20.020687,10.270481,-6.9086018,10.210019,4.060267,2.6778913,-19.728937,-2.9487228,0.7910217,-12.809903,-1.8596194,2.9399934,-2.1249452,-0.47620678,9.912459,-24.209946,-1.3266238,0.46958357,-8.558629,-5.4219646,0.049821492,-4.3453684,-5.0652924,16.761671,-19.52547,-4.032257,0.32540554,-8.384831,-1.2670958,-3.3119862,-9.379189,-23.217623,17.585773,-5.8455405,10.404732,11.363464,-0.07198597,-5.0954123,4.9058175,-14.745158,-0.06939877,-5.6329556,-2.7264225
33.294003,-60.756027,-7.661813,30.763445,2.847247,-11.682267,-8.138828,7.8083653,-21.03404,10.239626,-6.895813,10.139527,4.071681,3.0929582,-19.535833,-2.9512334,0.79122275,-11.53907,-1.87031,2.9399934,-1.6482894,-0.456998,10.267493,-25.249277,-1.3264408,0.46958357,-8.057513,-5.3906913,0.046902347,-3.9976702,-5.0493784,16.866842,-20.301697,-4.024661,0.32399675,-7.9110227,-1.2719351,-3.311852,-9.431415,-23.217623,17.585773,-5.8455405,10.32614,11.350302,-1.2658117,-5.077803,4.901996,-14.331757,-0.011633797,-5.634831,-1.5180085
32.91058,-60.698418,-6.708836,30.763445,2.921723,-11.645279,-8.227266,7.8303304,-19.615437,10.161326,-6.9169126,9.251668,4.095318,3.427669,-19.522795,-2.9530857,0.79144543,-10.628299,-1.8362283,2.9393663,-3.2583985,-0.44734347,10.151089,-26.87901,-1.3266238,0.46958357,-8.436141,-5.367278,0.04555832,-3.7438767,-5.0822816,16.106348,-22.496029,-4.0272512,0.32459328,-8.100826,-1.2435095,-3.31705,-9.043086,-23.217623,17.585773,-5.8455405,10.252828,10.45386,-3.6177232,-5.1159253,4.913007,-15.190442,0.05513488,-5.635139,-0.12583293
33.170773,-60.706474,-7.33282,30.810984,3.084848,-11.571188,-8.307276,7.8644624,-18.480139,10.196807,-6.912941,9.565967,4.110612,4.378452,-18.514856,-2.9488666,0.7908261,-12.813567,-1.8748876,2.9399934,-1.3705564,-0.42047188,10.957893,-26.09294,-1.3284541,0.46985614,-9.436216,-5.3613653,0.045492593,-3.6847723,-5.0965776,15.893304,-21.983086,-4.043409,0.32685217,-8.853705,-1.299711,-3.307324,-9.815044,-23.217623,17.585773,-5.8455405,10.206154,9.801431,-4.6460414,-5.1063824,4.907255,-14.959525,0.01379159,-5.635139,-0.901633
32.53748,-60.565125,-5.734061,30.87291,4.047307,-11.073211,-8.294262,7.8644624,-18.72267,10.362297,-6.8869534,11.564166,4.1012163,3.9786935,-19.05913,-2.950616,0.79122275,-11.449539,-1.891015,2.9399934,-0.7510394,-0.4385057,10.475815,-26.442545,-1.3264408,0.46958357,-8.083531,-5.3008075,0.041972697,-3.047713,-5.08359,15.9677305,-23.048857,-4.0164886,0.32282618,-7.6119375,-1.1711603,-3.3269448,-8.05185,-23.217623,17.585773,-5.8455405,10.156413,9.801431,-5.513142,-5.151376,4.9249263,-15.974093,0.01379159,-5.635139,-1.0778152
32.674175,-60.601032,-6.048932,30.954628,4.954702,-10.605071,-8.4274025,7.902932,-16.533482,10.521394,-6.859855,13.599966,4.178973,3.7888904,-22.055593,-2.9503675,0.79122275,-11.638116,-1.8907167,2.9399934,-0.56120425,-0.4419648,10.154503,-28.603567,-1.3298384,0.46985614,-9.214431,-5.344616,0.046181113,-3.505997,-5.074903,15.896961,-25.235807,-4.0720706,0.33279705,-10.230306,-1.2414553,-3.3163316,-8.958329,-23.217623,17.585773,-5.8455405,10.059374,9.144322,-8.588711,-5.1773133,4.9289804,-16.664768,0.07354308,-5.635139,0.47375253
32.60827,-60.5938,-5.9461308,30.840431,4.2144217,-10.986895,-8.346934,7.8850236,-17.923286,10.39755,-6.8587155,11.967343,4.179099,3.4858334,-22.09988,-2.947776,0.7906835,-12.813973,-1.8450685,2.938221,-2.7797608,-0.42596036,10.331196,-29.394163,-1.3254565,0.46958357,-7.886567,-5.312934,0.043440033,-3.179719,-5.0360217,16.376284,-25.728395,-4.0440636,0.3283271,-8.96383,-1.2637042,-3.3129508,-9.29804,-23.217623,17.585773,-5.8455405,10.0622015,9.818109,-7.7117305,-5.162981,4.9249263,-16.292255,0.16999753,-5.633013,2.445388
32.35308,-60.573154,-5.251526,30.883656,4.1626434,-11.016163,-8.221127,7.8303304,-19.783428,10.539756,-6.8312254,13.840789,4.1650996,4.1224537,-20.946909,-2.9519284,0.7913388,-11.294369,-1.8574557,2.9399934,-2.300754,-0.44734347,9.957637,-29.487228,-1.3264408,0.46958357,-7.9960785,-5.2891397,0.0418114,-2.9147472,-5.088915,15.756659,-24.457521,-4.047313,0.32804358,-9.064372,-1.269691,-3.3118732,-9.353357,-23.217623,17.585773,-5.8455405,10.156413,9.5281315,-6.1295543,-5.1727977,4.926769,-16.524197,0.1709626,-5.633013,2.513087
32.61187,-60.594852,-5.9631815,30.769938,3.0892024,-11.543491,-8.175665,7.821689,-20.52827,10.345561,-6.864278,11.294518,4.145275,3.8450038,-20.543112,-2.9563303,0.79161215,-8.836526,-1.8748876,2.9399934,-1.3705564,-0.44734347,10.116875,-27.988163,-1.3240765,0.46949244,-6.8965044,-5.2225704,0.039077908,-2.2594602,-5.071187,16.120153,-23.79707,-4.0084805,0.32216382,-7.2232814,-1.1951046,-3.3235168,-8.410646,-23.217623,17.585773,-5.8455405,10.147836,9.527247,-6.7376432,-5.1361866,4.9139943,-15.62223,0.1709626,-5.633013,2.513087
32.677776,-60.57683,-6.0216575,30.810984,3.4327414,-11.389455,-7.9762425,7.742593,-23.38169,10.178742,-6.9067364,9.489547,4.105235,3.28752,-20.346579,-2.9551494,0.79152757,-9.188847,-1.9272872,2.9399934,0.9259919,-0.46638033,9.6535,-28.17909,-1.3219614,0.4694252,-6.0507283,-5.2107506,0.03875187,-2.1066597,-5.1079984,15.615465,-22.818771,-3.9901943,0.32032368,-6.484527,-1.1938745,-3.323765,-8.323189,-23.217623,17.585773,-5.8455405,10.406679,10.423188,0.35110733,-5.194641,4.934342,-17.038717,0.1709626,-5.633013,2.513087
33.068176,-60.639828,-7.33282,30.883656,4.175582,-11.013875,-8.077753,7.7841406,-21.886017,10.337955,-6.884143,11.3245535,4.110612,3.6548762,-19.875513,-2.9514503,0.79122275,-11.464587,-1.88173,2.9399934,-1.1592593,-0.45826274,10.042445,-26.645145,-1.3265584,0.46958357,-8.23549,-5.3197966,0.043218017,-3.2453601,-5.116077,15.752465,-21.221905,-4.024661,0.32399675,-7.916882,-1.301643,-3.307324,-9.823406,-23.217623,17.585773,-5.8455405,10.36853,9.417963,-1.9770423,-5.1159253,4.913007,-15.190442,0.058084678,-5.635139,0.07290451
33.59626,-60.819916,-8.566355,30.863415,3.9572506,-11.124862,-8.261564,7.8499312,-19.066597,10.143531,-6.928894,9.006746,4.229949,3.9547763,-23.19203,-2.9474237,0.79091823,-12.754189,-1.8500315,2.939868,-2.695221,-0.42596036,10.385453,-29.471006,-1.3304161,0.47026867,-10.643436,-5.3062935,0.04257439,-3.1179237,-5.0992746,15.715367,-25.213589,-4.1101036,0.34018475,-11.965175,-1.3709191,-3.2949839,-10.745168,-23.217623,17.585773,-5.8455405,10.158606,9.167794,-6.4934773,-5.1536484,4.9249263,-16.12082,0.124556765,-5.6345053,1.451003
33.381664,-60.878014,-7.9479456,30.863415,3.532323,-11.330657,-8.336537,7.8689384,-17.899008,10.0950985,-6.9444313,8.285007,4.1843457,3.950484,-21.522171,-2.9542527,0.79161215,-10.03939,-1.883043,2.9399934,-1.0443767,-0.4378431,10.29901,-28.780455,-1.3264408,0.46958357,-8.057513,-5.2945395,0.041972697,-2.9819252,-5.0493784,16.301178,-25.286467,-4.0193586,0.32339838,-7.763323,-1.2052352,-3.3221996,-8.532857,-23.217623,17.585773,-5.8455405,10.156413,10.245752,-5.918277,-5.091442,4.9058175,-14.64963,0.1709626,-5.633013,2.513087
33.303074,-60.82217,-7.835217,30.82019,3.5450466,-11.326903,-8.241745,7.848828,-19.340887,10.133172,-6.9258223,8.779763,4.144131,3.952211,-20.575644,-2.9496822,0.7910802,-11.99125,-1.8467996,2.9397404,-2.8509195,-0.43771353,10.52461,-27.606197,-1.3304161,0.47026867,-10.450909,-5.41397,0.049600404,-4.218244,-5.032264,16.58896,-25.679745,-4.0717955,0.33279705,-10.098081,-1.2940762,-3.3082714,-9.68307,-23.217623,17.585773,-5.8455405,10.002353,10.48879,-8.9946575,-5.1245885,4.9136086,-15.42248,0.05653505,-5.635139,-0.021216657
33.484314,-60.680653,-8.290008,30.75915,3.349785,-11.449232,-8.313588,7.864746,-18.356546,9.99657,-6.94219,7.3264384,4.1650996,4.046592,-21.325954,-2.9480536,0.7907439,-12.513116,-1.835203,2.9393663,-3.2948892,-0.40530586,10.961642,-28.068716,-1.3250408,0.46949244,-7.724172,-5.2174087,0.039077908,-2.1530058,-5.058687,16.107092,-24.774355,-4.0469813,0.32804358,-9.054012,-1.2086227,-3.3206067,-8.525872,-23.217623,17.585773,-5.8455405,10.122102,10.672401,-6.057801,-5.0641723,4.8940578,-14.012533,0.08801462,-5.635139,0.657886
33.421143,-60.644226,-8.180675,30.684568,2.3011878,-11.967294,-8.081232,7.776171,-21.953596,10.154471,-6.8801236,9.172966,4.085411,4.427806,-17.842276,-2.9475284,0.79049116,-11.963427,-1.8874137,2.9399934,-0.9334339,-0.44183522,10.475815,-25.010183,-1.3218228,0.4694252,-6.040222,-5.228264,0.03934663,-2.2594602,-5.0355864,16.761671,-21.375237,-4.0160623,0.32282618,-7.5137634,-1.1723236,-3.3269448,-8.104353,-23.217623,17.585773,-5.8455405,10.190756,11.268159,-3.689926,-4.9641633,4.8746824,-11.786689,-0.011633797,-5.634831,-1.5045393
33.184322,-60.547314,-7.647851,30.732456,2.4615343,-11.902322,-8.118861,7.793572,-21.386547,10.222934,-6.889238,10.050404,4.1361704,4.045006,-20.33898,-2.9474516,0.79049116,-12.056131,-1.8748876,2.9399934,-1.449719,-0.44734347,10.267493,-25.463442,-1.3218228,0.4693668,-6.040222,-5.171463,0.03783761,-1.737608,-5.064949,16.298254,-21.746784,-4.0338106,0.32540554,-8.416486,-1.2500448,-3.315096,-9.1036625,-23.217623,17.585773,-5.8455405,10.147836,10.492563,-5.3442903,-5.008971,4.882906,-12.773814,0.04713045,-5.635139,-0.31550226
32.475727,-60.496838,-5.3295217,29.166395,-6.408737,-16.788727,-8.274113,7.7889333,-21.077776,9.962931,-6.6428795,5.961557,4.9217167,4.9670777,-56.838467,-2.8611333,0.64682025,-97.29253,-1.0987732,2.604523,-42.415737,-0.24919756,10.933894,-62.512817,-1.3824884,0.5266588,-56.4743,-8.328979,1.2092494,-36.717587,-4.662346,15.1679125,-67.2406,-4.9825363,1.4657034,-84.998436,-3.7206154,-1.8834232,-47.389477,-23.217623,17.585773,-5.8455405,7.9455857,3.7124982,-62.37909,-6.8866043,7.2411914,-77.253,-1.5514351,-5.035094,-38.798485
33.41989,-61.04233,-8.622253,30.244473,-0.5088546,-13.459481,-8.866642,7.970893,-10.005191,10.148165,-6.8449464,8.208223,5.092718,6.666347,-53.878086,-2.860889,0.6547439,-99.06893,-0.98412377,2.5023193,-47.864048,-0.16489786,13.080031,-63.812496,-1.4230763,0.6126022,-103.01536,-9.130411,1.9544513,-48.561123,-4.736945,16.54305,-67.647575,-5.064258,1.8789108,-103.365715,-4.1010957,-1.5374061,-54.293488,-23.217623,17.585773,-5.8455405,8.285362,4.229693,-57.01744,-6.8866043,7.457155,-83.75258,-1.6545465,-4.965897,-41.596813
34.480663,-61.606693,-11.735681,30.962992,4.982266,-10.58998,-9.1208105,8.034839,-6.301418,10.13374,-6.9491973,8.747472,5.2121058,7.4546814,-55.24918,-2.8773582,0.6882755,-80.43316,-0.95557547,2.47389,-53.304504,-0.16197221,13.600524,-63.698055,-1.4254483,0.62121594,-104.76952,-9.425386,2.259529,-52.697296,-4.7701464,17.23444,-67.07548,-5.087936,1.8973215,-103.187874,-4.2123413,-1.37538,-56.93246,-23.217623,17.585773,-5.8455405,8.28816,4.5294337,-57.98761,-6.885981,7.695434,-97.01407,-1.8364193,-4.8228173,-45.88126
33.741848,-61.50203,-9.2291,31.223183,8.896153,-8.452905,-9.271406,8.050697,-4.398796,10.208846,-6.9461546,9.476025,5.2121058,6.847923,-56.528694,-2.8773582,0.6882755,-81.138664,-0.83818203,2.2911203,-61.78221,-0.17452045,13.29564,-63.74154,-1.4254483,0.62121594,-104.76952,-9.665993,2.612925,-57.375893,-4.78864,17.229336,-66.93542,-5.0791345,1.9246875,-104.16542,-4.3313746,-1.1754225,-60.044632,-23.217623,17.585773,-5.8455405,8.28816,3.8823414,-57.96195,-6.925674,7.879714,-101.016624,-1.9543258,-4.679474,-50.482826
34.203262,-61.594563,-11.177293,31.2903,10.485085,-7.7171097,-9.396715,8.061392,-2.4793348,10.16243,-6.921237,9.161054,4.7987413,3.6097317,-45.89061,-2.892844,0.7051143,-67.362015,-0.81299883,2.250027,-64.39548,-0.32683533,9.838877,-64.75543,-1.4254483,0.62121594,-104.76952,-10.083414,3.4583507,-67.03065,-4.9346595,15.160559,-66.82655,-5.072932,1.9579356,-105.61823,-4.5220456,-0.7931838,-65.53136,-23.217623,17.585773,-5.8455405,8.314424,3.1318698,-56.18926,-6.938483,8.081453,-103.816345,-2.1204555,-4.447962,-56.521126
30.334455,-60.459435,0.15988454,31.341972,11.598526,-7.140498,-9.556003,8.061786,0.26955026,10.662923,-6.855625,15.356465,5.07133,2.303585,-61.863766,-2.8617318,0.6432209,-107.03329,-0.79128814,2.2020514,-66.974976,-0.35573387,9.011534,-63.844223,-1.4230763,0.61661166,-104.54735,-9.779152,2.8283968,-59.91825,-4.9754467,13.09008,-65.85669,-5.0516267,1.9330735,-106.050026,-4.4028335,-1.0536821,-61.889423,-23.217623,17.585773,-5.8455405,7.9833703,0.002349085,-64.378555,-6.928395,8.046016,-103.86401,-2.15346,-4.405453,-57.80514
32.07079,-60.505592,-4.520834,31.315561,10.993277,-7.472904,-9.465629,8.061786,-1.2132179,10.550006,-6.8461447,13.857619,5.0922465,3.370529,-61.031372,-2.8610938,0.65112615,-102.88017,-0.8369278,2.2926314,-61.26297,-0.31301904,9.65555,-65.59129,-1.4254483,0.6181491,-102.736946,-9.808177,2.8369863,-60.067673,-4.917033,14.233045,-66.3979,-5.0752883,1.8733485,-102.216286,-4.4133267,-1.0232887,-62.178047,-23.217623,17.585773,-5.8455405,8.14568,1.1957649,-59.88146,-6.9308343,7.8642526,-100.686615,-2.1200528,-4.4721165,-56.16756
32.241234,-60.517464,-4.9367914,31.390968,14.003747,-5.896974,-9.4640255,8.061786,-1.2102413,10.188108,-6.9348636,9.409083,5.125988,2.8111186,-63.12971,-2.8617318,0.6432209,-106.49276,-0.7669957,2.1344302,-70.139786,-0.31301904,9.533192,-67.49129,-1.4254483,0.62121594,-104.7721,-10.0076,3.2391381,-64.94665,-4.870447,14.662839,-69.741005,-5.072789,1.9579356,-105.61823,-4.60674,-0.6155739,-68.10466,-23.217623,17.585773,-5.8455405,7.987849,0.7469118,-64.83139,-6.938483,8.081453,-103.668785,-2.250553,-4.247906,-61.77512
32.0743,-60.488487,-4.44078,31.390968,15.336165,-5.201833,-9.556003,8.061786,0.08598619,10.443397,-6.920158,13.264139,5.1101284,2.0516825,-63.80695,-2.8617318,0.6432209,-106.51668,-0.7566556,2.1036756,-71.737404,-0.3452046,8.999288,-66.737236,-1.4254483,0.62121594,-104.44035,-9.981434,3.1909688,-64.26479,-4.82865,15.211686,-69.36036,-5.072789,1.9608452,-105.69372,-4.6076055,-0.61836356,-68.10466,-23.217623,17.585773,-5.8455405,7.925188,1.8040332,-65.939125,-6.938483,8.081453,-103.668785,-2.268647,-4.2076144,-62.719624
32.722164,-60.61036,-6.1695313,31.36053,14.148663,-5.742293,-9.483414,8.053114,-1.0726355,10.327235,-6.8994045,11.112624,5.0741167,2.0419414,-63.12971,-2.8617318,0.6432209,-106.73513,-0.77012426,2.1419587,-69.6955,-0.32683533,9.378025,-66.737236,-1.4254483,0.62121594,-105.29976,-9.891514,2.9979477,-61.844734,-4.8362827,15.078318,-70.13361,-5.072789,1.9624503,-105.893745,-4.529987,-0.78617966,-65.64976,-23.217623,17.585773,-5.8455405,7.956276,1.407638,-65.269516,-6.940818,8.06322,-103.53344,-2.2145298,-4.3171835,-60.13666
32.598618,-60.622894,-5.79435,31.390968,14.724452,-5.5121026,-9.444453,8.051091,-1.707964,10.308619,-6.8771825,10.816159,5.087948,1.5023404,-64.83024,-2.8626342,0.6432209,-107.11366,-0.7566556,2.1036756,-71.737404,-0.34126234,9.108215,-66.30055,-1.4252726,0.62121594,-105.48281,-9.949137,3.116601,-63.167355,-4.826981,15.364301,-69.36036,-5.072681,1.9647661,-106.26168,-4.560287,-0.7127098,-66.812546,-23.217623,17.585773,-5.8455405,8.02073,2.1751049,-63.509586,-6.938483,8.087335,-103.94562,-2.2142863,-4.311901,-60.300243
32.36137,-60.517464,-5.18275,31.36053,15.053145,-5.2913575,-9.348988,8.050697,-2.8576152,10.363191,-6.841066,11.249297,5.034826,1.5023404,-62.352318,-2.862622,0.6460488,-105.57425,-0.7764618,2.1612954,-69.13057,-0.37442952,8.718425,-62.50732,-1.4136467,0.58766025,-94.93925,-9.805731,2.854056,-60.144222,-4.876929,15.069905,-64.72457,-4.98793,1.7106981,-105.35032,-4.4867163,-0.8930104,-64.250946,-23.217623,17.585773,-5.8455405,8.18992,2.359101,-59.753593,-6.882933,7.9577694,-102.83585,-2.1602547,-4.407645,-57.92632
32.885307,-60.65158,-6.6308684,31.346338,11.7781315,-7.0587525,-9.306701,8.050697,-3.5499496,10.232321,-6.75951,9.677099,5.0469747,2.0419414,-62.273453,-2.8643062,0.6493359,-104.84532,-0.7846106,2.1809034,-68.1662,-0.3452046,9.049371,-65.467384,-1.4136467,0.58895284,-95.4264,-9.859595,2.9689326,-61.448074,-4.8762946,14.829312,-67.123955,-4.9915123,1.7177117,-106.152725,-4.4931684,-0.8834833,-64.34329,-23.217623,17.585773,-5.8455405,8.130304,2.038719,-60.799168,-6.922787,7.9577694,-102.683815,-2.1943364,-4.35551,-59.14266
32.733036,-60.584515,-6.3110347,31.331099,11.207738,-7.344762,-9.203356,8.04881,-4.895261,10.232885,-6.7561193,9.700041,5.005165,2.8128872,-59.301907,-2.862531,0.6547439,-99.715805,-0.7959479,2.2032948,-66.67367,-0.31301904,9.785492,-64.66586,-1.4136467,0.5843385,-93.139984,-9.815852,2.8880882,-60.48665,-4.8618402,14.855572,-66.248665,-4.9861307,1.6995898,-103.401634,-4.4471893,-0.96682966,-63.117863,-23.217623,17.585773,-5.8455405,8.141566,2.2617595,-60.03094,-6.8886433,7.8642526,-100.957375,-2.1446314,-4.432686,-57.19448
32.438454,-60.527626,-5.462426,31.362349,13.098402,-6.3999524,-9.2013855,8.04881,-4.8998365,10.19669,-6.8076773,9.432367,4.9896517,2.1262105,-59.615177,-2.863857,0.6547439,-100.43582,-0.7959479,2.2030315,-66.84949,-0.32683533,9.465838,-64.42092,-1.4136467,0.5861329,-93.733505,-9.830794,2.9194825,-60.876274,-4.8575673,15.003,-65.77257,-4.9861307,1.7001486,-103.53115,-4.460813,-0.94131935,-63.523693,-23.217623,17.585773,-5.8455405,8.252087,2.488848,-57.47963,-6.8886433,7.8408976,-100.754524,-2.1766243,-4.4019504,-57.989193
32.526875,-60.62454,-5.646379,31.3391,11.772846,-7.0739055,-9.26222,8.050102,-4.0451183,10.176528,-6.7207923,8.888472,4.9255524,2.865302,-55.971786,-2.866406,0.6573615,-97.53596,-0.81163776,2.235862,-63.982334,-0.32603526,9.785492,-63.00565,-1.4136467,0.5843385,-92.6697,-9.796652,2.855392,-60.144222,-4.880622,14.829312,-65.77257,-4.9861307,1.6919271,-101.27667,-4.4098997,-1.0430408,-61.85609,-23.217623,17.585773,-5.8455405,8.18992,1.9458956,-59.765327,-6.886677,7.7625413,-99.20387,-2.137123,-4.4534817,-56.919968
32.721138,-60.81181,-6.2302747,31.362349,13.110846,-6.3909874,-9.358885,8.051091,-2.7898045,10.193197,-6.773772,8.82249,4.9420795,2.629776,-57.60835,-2.866406,0.6573615,-98.72203,-0.80930847,2.235862,-64.33895,-0.3408753,9.525565,-62.726795,-1.4136467,0.5843385,-92.901726,-9.830794,2.9194825,-60.876274,-4.901549,14.725789,-65.385864,-4.9861307,1.6995898,-102.30163,-4.4098997,-1.0430408,-61.980656,-23.217623,17.585773,-5.8455405,8.18992,1.6657268,-59.765327,-6.886677,7.8408976,-100.754524,-2.177255,-4.401653,-58.095394
32.36035,-60.496838,-5.2537665,31.362349,13.098402,-6.3931937,-9.2139845,8.04881,-4.624099,10.176528,-6.731597,8.885052,4.875496,2.2646816,-55.527004,-2.8621728,0.6573615,-97.38305,-0.8177564,2.2625735,-63.318237,-0.35573387,9.112875,-61.859394,-1.4136467,0.57667255,-90.92822,-9.763169,2.8214784,-59.697155,-4.899781,14.338634,-64.72457,-4.9861307,1.6696317,-100.32467,-4.4057317,-1.0430408,-61.8241,-23.217623,17.585773,-5.8455405,8.1375475,1.8553865,-60.25003,-6.8886433,7.8408976,-100.754524,-2.1766243,-4.4026103,-57.987835
32.541485,-60.5938,-5.6732354,31.367271,13.54426,-6.150312,-9.410356,8.0609455,-2.001088,10.3762455,-6.8510137,11.70709,4.9009495,3.0155792,-54.258526,-2.866406,0.66442513,-97.124565,-0.8302563,2.2964652,-62.42814,-0.36786398,9.301313,-58.67778,-1.4136467,0.57667255,-91.16025,-9.727572,2.7535298,-58.874485,-4.9116755,14.926283,-61.849392,-4.990523,1.6070592,-96.0453,-4.346372,-1.136818,-60.382137,-23.217623,17.585773,-5.8455405,8.284046,2.82411,-55.53142,-6.886677,7.7071943,-97.129395,-2.1217763,-4.4643173,-56.242683
32.813484,-60.61036,-6.475172,31.368755,14.93578,-5.430342,-9.070405,8.039112,-6.978264,10.245593,-6.8453007,10.183355,4.9217167,2.9102945,-56.15015,-2.8612208,0.6547439,-99.98123,-0.8177564,2.2796957,-63.301735,-0.3606341,9.11138,-61.513245,-1.4136467,0.5843385,-93.139984,-9.806773,2.8880882,-60.48665,-4.884279,14.7247095,-64.297005,-4.9861307,1.6995898,-102.96744,-4.45043,-0.9637117,-63.117863,-23.217623,17.585773,-5.8455405,8.159515,3.0016348,-58.926052,-6.886677,7.7894897,-99.85407,-2.2139585,-4.3086023,-60.3413
33.293068,-60.52553,-7.8294816,31.364399,13.594327,-6.1770716,-8.807181,7.975622,-11.012655,10.080134,-6.731597,7.362636,4.7466717,2.207357,-49.8186,-2.8607197,0.66442513,-94.2237,-0.8309835,2.3068068,-61.865437,-0.4030853,8.520336,-56.519478,-1.4136467,0.57667255,-89.98115,-9.742744,2.7875702,-59.152992,-4.8618045,15.077232,-61.011906,-4.9861307,1.6995898,-102.91703,-4.4517555,-0.9657929,-63.119774,-23.217623,17.585773,-5.8455405,8.155497,3.089474,-56.705685,-6.886677,7.8305087,-100.555855,-2.1602547,-4.409514,-57.880245
27.884735,-61.55033,2.5312886,30.456882,-0.6088694,-13.41398,-9.056717,8.041834,-7.1979527,10.26121,-6.9429145,10.2933655,3.3027146,2.6758168,5.8112044,-2.954606,0.7910496,-11.536046,-1.5574521,2.8930736,-16.415424,-0.7039252,8.416412,2.62464,-1.3616519,0.48180196,-25.817373,-6.574876,0.31066975,-16.707474,-5.3319883,16.885223,1.0636493,-4.1991763,0.3591138,-16.177906,-1.7021985,-3.215568,-15.30986,-23.217623,17.585773,-5.8455405,11.069302,16.321285,15.966596,-5.7554164,5.1818304,-31.337452,-0.9525006,-5.426584,-22.460255
31.019001,-61.44049,-1.1881094,30.076738,-2.686204,-14.505551,-8.741495,7.9969997,-11.749195,10.310972,-6.9337416,11.09138,3.4293597,3.4579458,1.4870868,-2.9545717,0.7910496,-9.710043,-1.6292994,2.9131405,-12.658907,-0.6702986,8.110881,-5.078714,-1.3436642,0.47354862,-17.067226,-6.1068172,0.124829896,-11.366965,-5.240434,16.834316,-6.6526623,-4.152253,0.34858787,-13.88201,-1.4792784,-3.2699873,-12.194115,-23.217623,17.585773,-5.8455405,10.659766,17.216644,7.0535274,-5.4577427,5.063597,-23.92157,-0.58441836,-5.5634947,-13.767527
31.259968,-61.34333,-2.0786462,30.483627,0.037258297,-13.14058,-8.775201,8.006276,-11.313537,10.426608,-6.901655,13.044292,3.5702202,3.162526,-2.179227,-2.9563189,0.791385,-8.847396,-1.7157367,2.9285972,-9.302902,-0.6586344,7.993309,-8.350575,-1.3398128,0.47269884,-15.097876,-5.7822127,0.08540309,-8.032972,-5.2138476,16.933226,-9.645878,-4.096022,0.33641765,-11.287865,-1.3838961,-3.2913756,-10.877179,-23.217623,17.585773,-5.8455405,10.603964,16.209457,4.9279394,-5.225338,4.94309,-17.700638,-0.4192649,-5.5922847,-10.5805855
32.262924,-61.16853,-4.880038,30.360073,-0.71291983,-13.482078,-8.852346,8.003904,-10.246651,10.681698,-6.862149,15.304448,3.6552489,3.6623063,-3.8867102,-2.9624474,0.79161215,-5.3872514,-1.8296673,2.938914,-3.706898,-0.6296995,8.524998,-8.832889,-1.3284541,0.46985614,-9.183571,-5.6609488,0.07219368,-6.817094,-5.1884317,17.03965,-9.144704,-4.0067115,0.32174295,-7.136179,-1.3067883,-3.307324,-9.888137,-23.217623,17.585773,-5.8455405,10.692978,15.730307,6.982422,-5.196968,4.934342,-17.103336,-0.35621783,-5.602961,-9.065817
31.92333,-60.673687,-3.985608,30.747139,2.8978777,-11.675842,-8.742358,7.9833937,-11.856247,10.708525,-6.812407,15.600316,3.7088902,1.5998932,-10.072313,-2.9572036,0.79161215,-8.412472,-1.8055761,2.937666,-4.7282505,-0.6702986,6.960416,-12.928214,-1.3201114,0.4693668,-5.1562524,-5.419137,0.04943183,-4.287955,-5.185864,15.993707,-11.788992,-4.030896,0.32540554,-8.275691,-1.2545109,-3.315471,-9.192107,-23.217623,17.585773,-5.8455405,10.488026,12.284236,2.3611758,-5.0287666,4.889347,-13.265186,-0.40581435,-5.589073,-10.134091
32.543324,-60.80023,-5.702771,30.701805,2.3625581,-11.944925,-8.84574,8.003904,-10.327509,10.884022,-6.707199,17.695282,3.6986325,2.3401415,-8.5427065,-2.9561958,0.79161215,-8.945749,-1.7923254,2.9370484,-5.3358045,-0.70408124,6.6932545,-9.632319,-1.3214755,0.4693668,-5.6982617,-5.361953,0.046181113,-3.67818,-5.142144,16.660707,-11.288408,-4.0238056,0.32540554,-8.061115,-1.3285757,-3.298432,-10.262113,-23.217623,17.585773,-5.8455405,10.380304,11.804164,-0.2476704,-5.063845,4.9174547,-14.783586,-0.33435747,-5.598681,-8.606112
32.43328,-60.802483,-5.3727202,30.82019,3.5809743,-11.322574,-8.905395,8.016745,-9.441475,10.881355,-6.718979,17.972887,3.689545,2.3369393,-8.072385,-2.9561615,0.79161215,-8.927761,-1.8244735,2.9385011,-3.812963,-0.71843714,6.4192824,-7.548088,-1.3199996,0.4693668,-4.8220444,-5.233022,0.039785,-2.3744683,-5.22116,15.617754,-10.0221815,-3.9840803,0.32056054,-6.3110867,-1.2524577,-3.3124857,-9.169298,-23.217623,17.585773,-5.8455405,10.405784,10.675812,-0.59424627,-5.09504,4.940846,-15.730762,-0.24593823,-5.6112046,-6.6740837
32.618206,-60.64106,-5.985527,30.663761,1.9023718,-12.168546,-9.021831,8.031139,-7.614025,10.790229,-6.7640424,16.931698,3.7083256,2.872751,-8.070592,-2.952875,0.79144543,-10.789824,-1.9569259,2.939709,2.3915987,-0.6298723,8.407997,-7.8691554,-1.3201114,0.4693668,-5.1043386,-5.152316,0.037465364,-1.5322381,-5.0624514,17.90775,-10.093935,-3.9833643,0.3200524,-6.2083645,-1.1678903,-3.3269448,-8.017114,-23.217623,17.585773,-5.8455405,10.326764,11.919881,-0.9209645,-4.8929,4.862415,-10.212533,-0.13527024,-5.628473,-4.2742567
32.306915,-60.561447,-5.0951624,30.82019,3.8324423,-11.191121,-8.93462,8.01701,-9.007106,10.824021,-6.762859,17.132706,3.7441852,3.057468,-8.900728,-2.9521391,0.7913388,-10.977515,-1.9488852,2.9398727,1.9995419,-0.6079092,8.669742,-9.814305,-1.3235554,0.46949244,-6.7940874,-5.2964067,0.04257439,-3.0729043,-5.064784,17.839203,-10.038599,-4.007779,0.32216382,-7.204213,-1.1845653,-3.3257504,-8.249241,-23.217623,17.585773,-5.8455405,10.368764,12.344532,-0.20355429,-4.819742,4.8484936,-8.539056,-0.13364919,-5.628473,-4.150499
32.074207,-60.488487,-4.4144835,30.896759,4.527938,-10.822632,-8.962134,8.023189,-8.488695,10.934434,-6.7223783,18.853018,3.804436,3.7766328,-9.707777,-2.9496346,0.7908261,-11.450987,-1.9300805,2.9399934,1.2300309,-0.5804862,9.123955,-10.527505,-1.3231671,0.4694252,-6.7195997,-5.2466893,0.041313432,-2.550595,-5.0785103,17.405716,-10.448559,-3.9980185,0.32102892,-6.7817917,-1.1368105,-3.3309777,-7.700862,-23.217623,17.585773,-5.8455405,10.403785,11.724783,0.78651816,-4.8337526,4.850767,-8.818805,-0.08727064,-5.6314254,-3.1567826
31.965485,-60.480988,-4.141451,30.883656,4.1990848,-10.995744,-8.934783,8.01701,-9.00253,10.824021,-6.755721,17.42346,3.7490504,3.5410836,-8.195129,-2.953307,0.79144543,-9.709266,-1.9367195,2.9399934,1.397099,-0.60316,8.795484,-9.595988,-1.3226502,0.4694252,-6.5854278,-5.289076,0.04257439,-2.980199,-5.1116524,17.261732,-8.5096655,-3.9833772,0.31979626,-6.1237907,-1.0923413,-3.3373473,-6.9916344,-23.217623,17.585773,-5.8455405,10.60485,11.64694,4.980573,-4.853757,4.855978,-9.3021755,-0.28785756,-5.612786,-7.6138854
32.22363,-60.52204,-4.8603244,30.810984,3.1326683,-11.5635195,-8.745394,7.9833937,-11.761951,10.857027,-6.7506533,17.507511,3.7907748,3.793986,-9.081044,-2.9540577,0.79152757,-9.882931,-1.9490724,2.9398727,2.0621831,-0.58433056,9.0261345,-11.141885,-1.3240765,0.46949244,-6.9769144,-5.27367,0.040951945,-2.760466,-5.097935,17.386013,-10.069464,-3.985851,0.3200524,-6.28875,-1.0961485,-3.337065,-6.938542,-23.217623,17.585773,-5.8455405,10.651038,11.149139,5.503026,-4.891469,4.860633,-10.144882,-0.28898144,-5.612713,-7.6079383
32.07108,-60.51625,-4.402911,30.81701,3.4708858,-11.377535,-8.65188,7.967552,-13.209,10.655577,-6.797192,15.324357,3.817958,2.8809156,-11.544937,-2.9564497,0.79161215,-8.794731,-1.9272872,2.9399934,1.0727172,-0.5845176,8.664449,-14.182929,-1.3224736,0.4694252,-6.2077456,-5.2668424,0.040386837,-2.6914897,-5.0774517,17.477577,-11.909034,-3.9791603,0.31955466,-5.965349,-1.0832794,-3.3384464,-6.879013,-23.217623,17.585773,-5.8455405,10.6508045,11.384398,5.48946,-4.925822,4.8665323,-10.878254,-0.22169521,-5.621443,-6.047444
32.17409,-60.52972,-4.7110877,30.810984,3.137887,-11.560393,-8.692143,7.968786,-12.594028,10.728302,-6.781696,16.083494,3.8863606,3.1695974,-12.986728,-2.9585063,0.79161215,-7.7346716,-1.9585471,2.939709,2.4256535,-0.5434641,9.382067,-15.763105,-1.3209654,0.4693668,-5.217162,-5.1500955,0.037465364,-1.5163493,-4.982614,18.672915,-13.141524,-3.9345753,0.31857622,-3.842498,-0.9789419,-3.3469145,-5.745919,-23.217623,17.585773,-5.8455405,10.582078,12.463221,4.5059724,-4.823079,4.8484936,-8.521344,-0.1922152,-5.6243954,-5.35089
32.350285,-60.537514,-5.2275267,30.74593,2.6548972,-11.769343,-8.773318,7.987145,-11.408457,10.72804,-6.788045,16.196339,3.872659,2.5110357,-14.1794815,-2.9517303,0.79144543,-11.162212,-1.909204,2.9399934,0.17198013,-0.5335641,9.463279,-16.872164,-1.3266238,0.46958357,-7.8654895,-5.3405995,0.046902347,-3.5213163,-5.0112677,18.011389,-15.16865,-3.9972498,0.32174295,-6.8548355,-1.1551135,-3.326855,-7.9346614,-23.217623,17.585773,-5.8455405,10.457479,11.676273,1.4498358,-4.927113,4.869686,-10.9356365,-0.26340768,-5.6167884,-6.8789372
32.252213,-60.590122,-4.9062185,30.8981,4.021714,-11.085244,-8.828023,7.9961424,-10.649404,10.613943,-6.8104553,14.848346,3.8550575,2.928944,-12.691857,-2.9508104,0.79122275,-11.545147,-1.9160845,2.938848,0.60347074,-0.5459687,9.196186,-17.022388,-1.3284541,0.4705621,-9.340678,-5.445177,0.05584023,-4.700495,-5.0451536,17.409521,-16.061438,-4.0037546,0.32282618,-7.2968054,-1.2356356,-3.3163316,-8.857929,-23.217623,17.585773,-5.8455405,10.379275,11.306802,-0.62446046,-4.939666,4.8746824,-11.227952,-0.27797398,-5.611612,-7.333883
32.06243,-60.529163,-4.385352,30.920094,4.6122837,-10.779326,-8.850139,8.003904,-10.2620325,10.722222,-6.789018,16.069738,3.9216383,3.352108,-14.473465,-2.9454446,0.79043937,-14.434985,-1.8924674,2.9355433,-0.6782177,-0.5335641,9.381556,-18.005682,-1.3303165,0.47117946,-10.287084,-5.520502,0.085798346,-5.7114596,-5.026312,17.762228,-15.5763035,-4.0228024,0.3255751,-8.08889,-1.2585479,-3.31236,-9.18015,-23.217623,17.585773,-5.8455405,10.410242,11.426412,0.39876372,-4.925103,4.869686,-10.851191,-0.33575705,-5.5935707,-9.178762
32.420353,-60.622894,-5.344734,30.99663,5.4629917,-10.335638,-8.80912,7.995965,-10.798938,10.549579,-6.8305845,13.900989,3.8920481,2.5234854,-15.184094,-2.9439878,0.7900953,-15.269168,-1.812527,2.9341967,-5.446852,-0.5436606,9.052086,-19.892717,-1.3321437,0.47447035,-14.674527,-5.7075586,0.15035819,-7.7886567,-4.9983244,17.856989,-18.04728,-4.0555124,0.33218354,-9.477316,-1.4106314,-3.281768,-11.215106,-23.217623,17.585773,-5.8455405,10.315701,12.122603,-1.5497215,-4.962098,4.8805017,-11.766335,-0.341606,-5.592541,-9.186037
32.80004,-60.61036,-6.3541393,31.018547,5.86765,-10.13357,-8.758615,7.9833937,-11.702189,10.369516,-6.858892,11.929673,3.9216383,3.2845883,-14.741843,-2.9343011,0.7844787,-22.719242,-1.8267487,2.9341536,-3.3953433,-0.5101362,9.528219,-21.86752,-1.334286,0.47483137,-17.25891,-5.7834277,0.15656339,-8.485712,-5.0213294,17.397152,-19.274263,-4.093992,0.33844706,-11.230792,-1.4493649,-3.2718935,-11.804715,-23.217623,17.585773,-5.8455405,10.331099,10.6496935,-2.0893924,-5.093579,4.9362364,-15.717554,-0.44493023,-5.558157,-11.463014
32.45872,-60.500515,-5.440736,30.853535,4.6009045,-10.768253,-8.810556,7.9957376,-10.748938,10.638775,-6.815587,15.165878,3.883189,3.0975194,-14.043899,-2.9287179,0.7829495,-21.648252,-1.8833265,2.93445,-0.9841706,-0.5459687,8.861888,-18.98057,-1.3214755,0.4704748,-5.428366,-5.439225,0.081774995,-5.53756,-5.0457735,16.969585,-16.158913,-4.013234,0.32399675,-7.574691,-1.2862042,-3.3048384,-9.610436,-23.217623,17.585773,-5.8455405,10.443355,10.11363,1.2018206,-4.9858136,4.881526,-12.300013,-0.36544874,-5.586339,-9.583221
31.975622,-60.545597,-4.2452116,30.884697,4.4088316,-10.885145,-8.81051,7.995965,-10.73541,10.651629,-6.7777123,15.148636,4.030112,3.8767724,-17.84186,-2.9320242,0.7837524,-23.873537,-1.7327676,2.9172578,-8.440303,-0.5180711,9.1421795,-22.817616,-1.334286,0.47483137,-16.525465,-6.047948,0.16912207,-11.024375,-5.0749054,16.481941,-20.87019,-4.108468,0.4314703,-11.807286,-1.6064619,-3.180477,-16.367268,-23.217623,17.585773,-5.8455405,10.30161,9.650062,-3.5030577,-5.249219,4.9819784,-18.8027,-0.5443821,-5.5206766,-14.275801
31.840397,-60.514095,-3.781557,30.840431,4.2105374,-10.9744005,-8.808736,7.9957376,-10.913803,10.708301,-6.706898,16.916714,4.1456323,4.00066,-22.3283,-2.9153812,0.7748389,-30.782736,-1.5962453,2.8746212,-13.833912,-0.50332284,9.194565,-26.22067,-1.3398128,0.4758053,-18.26784,-6.3306055,0.20708641,-15.468074,-5.046289,16.302269,-25.82995,-4.25074,0.5126006,-26.648869,-1.9611075,-3.0386524,-20.442144,-23.217623,17.585773,-5.8455405,10.030266,8.434445,-10.069382,-5.579929,5.1982083,-25.635687,-0.7855039,-5.488054,-17.493277
31.953709,-60.532623,-4.0955157,30.884697,4.4921813,-10.848406,-9.023369,8.03022,-7.7093563,10.88351,-6.7112803,17.711817,4.058487,3.0236409,-20.226992,-2.9186876,0.7757331,-29.402475,-1.6723381,2.9119158,-10.87071,-0.52346176,9.055479,-23.107655,-1.334286,0.47447035,-15.96181,-5.8451653,0.1635168,-9.367808,-5.0319343,16.85903,-22.61225,-4.1491413,0.45023787,-14.912013,-1.6386371,-3.1701784,-16.789015,-23.217623,17.585773,-5.8455405,10.095975,9.772018,-7.618452,-5.491444,5.089288,-19.98233,-0.47583723,-5.5271506,-11.382544
32.17854,-60.6183,-4.7078214,30.820654,3.900309,-11.15125,-8.859465,8.003904,-10.113242,10.787105,-6.740918,17.221903,4.0173216,2.8723423,-18.87532,-2.9371908,0.7857165,-23.150162,-1.7382677,2.9289896,-8.737952,-0.52346176,9.190565,-21.187967,-1.3303165,0.4736163,-12.180245,-5.4152226,0.06762604,-4.723494,-5.0723343,16.601303,-19.860928,-4.0829806,0.33591762,-10.78264,-1.4743326,-3.2692559,-12.17013,-23.217623,17.585773,-5.8455405,10.232092,9.705415,-4.631538,-5.1124926,4.9428506,-16.122217,-0.21574254,-5.6102095,-6.325237
31.759031,-60.475338,-3.666559,30.99663,5.4133716,-10.378422,-8.907234,8.01003,-9.433206,10.72804,-6.7888813,16.099672,4.0173216,2.629776,-19.040125,-2.9394884,0.78609884,-20.258001,-1.7643731,2.9301107,-7.6891923,-0.5180711,9.049903,-23.264849,-1.3304161,0.47395113,-13.4003935,-5.3502502,0.07885007,-4.2240677,-5.083007,16.33139,-20.094164,-4.049568,0.33079705,-9.269603,-1.3957887,-3.2894573,-11.027185,-23.217623,17.585773,-5.8455405,10.187158,9.994263,-4.8300233,-5.1303067,4.9294524,-16.136683,-0.05180294,-5.620908,-2.2205143
32.609215,-60.565125,-5.940569,30.779144,3.8493721,-11.171856,-8.796079,7.9957376,-10.975856,10.784385,-6.745567,17.135857,4.0305247,3.203074,-18.55563,-2.939748,0.78609884,-20.430027,-1.7983071,2.9324532,-6.0342927,-0.5030121,9.452399,-23.346716,-1.3298384,0.4706256,-9.847005,-5.3546,0.05799001,-4.1605835,-5.046032,16.756653,-21.047426,-4.0322556,0.32685217,-8.479163,-1.3942794,-3.2894573,-11.027185,-23.217623,17.585773,-5.8455405,10.185351,10.601316,-4.816227,-5.142281,4.9249263,-15.925292,-0.07847153,-5.623234,-2.7990575
32.59567,-60.565125,-5.8239064,30.82019,3.5874932,-11.30553,-8.832987,7.9961424,-10.486025,10.717885,-6.7288547,16.57089,4.042352,2.5239427,-19.989595,-2.939748,0.78609884,-20.324984,-1.752001,2.9289896,-8.435364,-0.5165941,9.110518,-23.264849,-1.3277407,0.47062436,-8.8692045,-5.385193,0.07821538,-4.5294814,-5.040569,16.860092,-21.047426,-4.0322556,0.3286124,-8.569247,-1.3844911,-3.28815,-10.904366,-23.217623,17.585773,-5.8455405,10.126346,10.106819,-5.8517766,-5.085859,4.940579,-15.513911,-0.10770502,-5.6170216,-3.450271
32.302162,-60.517464,-5.013981,30.779144,3.7722206,-11.216426,-8.864622,8.005132,-10.038001,10.693708,-6.7288547,16.590744,4.1219726,3.4259632,-21.237347,-2.9186876,0.7757331,-29.230423,-1.6706114,2.9095843,-11.631059,-0.48952615,9.726051,-23.390266,-1.3298384,0.4737321,-13.026984,-5.7149463,0.1642774,-7.7112393,-4.9849753,17.498682,-22.271008,-4.065653,0.41639313,-9.957785,-1.5034386,-3.2022033,-13.282046,-23.217623,17.585773,-5.8455405,10.003035,10.003098,-8.8122015,-5.1175556,4.9431643,-16.16063,-0.3251382,-5.5938888,-8.7903
32.16078,-60.494278,-4.6628227,30.884697,4.410769,-10.882498,-8.733874,7.9833937,-11.942869,10.671366,-6.765556,15.91164,4.042352,2.7554963,-19.619078,-2.9376638,0.7857165,-20.911877,-1.7301933,2.9161367,-8.8991375,-0.51764244,9.2354355,-22.206694,-1.328027,0.47076258,-9.045561,-5.5959587,0.09210815,-6.3764935,-5.0185924,17.09457,-21.201502,-4.013492,0.3263535,-7.712109,-1.3150488,-3.3027186,-9.960336,-23.217623,17.585773,-5.8455405,10.058092,9.916627,-7.6748085,-5.0499268,4.898411,-14.020829,-0.26340768,-5.6057262,-7.771857
31.380743,-60.46628,-2.5594454,30.965246,5.1978316,-10.491975,-8.738706,7.9833937,-11.779334,10.754377,-6.740918,17.067032,4.0698934,3.5432994,-19.572235,-2.9376729,0.7857165,-22.889105,-1.6706114,2.9105315,-11.619256,-0.5030121,9.378649,-24.49383,-1.3321437,0.47447035,-14.904926,-5.7278566,0.1607193,-8.006596,-5.0288043,16.830683,-23.4189,-4.0739803,0.4183362,-10.274069,-1.4252555,-3.2643018,-11.453388,-23.217623,17.585773,-5.8455405,10.026073,9.705415,-8.803522,-5.2216415,4.965007,-18.27556,-0.29511937,-5.5961223,-8.15989
32.06243,-60.540123,-4.5026774,30.965246,5.2230616,-10.458018,-8.831913,7.9961424,-10.509102,10.697271,-6.778725,15.694359,4.0213084,3.0185027,-18.55563,-2.9376729,0.7857165,-22.451086,-1.7417237,2.9180906,-8.169203,-0.5165941,9.050137,-24.314608,-1.3321437,0.47447035,-14.674527,-5.649755,0.14570193,-7.065628,-5.0079803,17.271605,-21.894077,-4.0829806,0.4194274,-10.78264,-1.4140344,-3.2661512,-11.297784,-23.217623,17.585773,-5.8455405,10.073196,10.375853,-7.56487,-5.1177354,4.9428506,-16.204441,-0.27664518,-5.603575,-7.712086
32.180935,-60.52972,-4.7218337,30.99663,5.544443,-10.305441,-8.678888,7.968786,-12.714705,10.603218,-6.791856,14.832209,4.06641,2.4459612,-21.237347,-2.9343011,0.78326637,-25.781635,-1.6595818,2.8871431,-9.8631935,-0.5341204,8.401667,-26.1817,-1.3367274,0.47483137,-17.293839,-6.011758,0.16662428,-9.922854,-4.9963284,17.332983,-22.682724,-4.127194,0.4361562,-15.282894,-1.5307251,-3.203866,-13.715152,-23.217623,17.585773,-5.8455405,10.160966,10.204143,-5.369301,-5.1920686,4.9954247,-17.975958,-0.41474012,-5.5350885,-9.993291
32.34545,-60.599,-5.1288886,30.965246,5.2263417,-10.456844,-8.676081,7.9683175,-12.840641,10.648862,-6.762938,15.8030615,4.1086946,2.9086542,-22.353033,-2.9182146,0.7757331,-29.198582,-1.704112,2.913724,-9.749561,-0.5327266,8.52565,-26.319881,-1.3367274,0.47483137,-17.576336,-5.80503,0.13994624,-8.977671,-5.017248,16.92853,-24.069292,-4.172842,0.45670915,-16.92601,-1.5777936,-3.1902869,-16.088814,-23.217623,17.585773,-5.8455405,10.001044,9.996104,-9.679786,-5.219806,4.9783196,-18.536709,-0.3709285,-5.583434,-9.582489
32.29733,-60.561447,-5.0577817,30.90699,4.4046783,-10.900604,-8.702102,7.973626,-12.45118,10.668847,-6.77467,15.441035,4.134253,3.7748225,-21.07482,-2.9315512,0.7837524,-23.940268,-1.7524105,2.9189827,-7.183127,-0.5320789,8.831893,-23.67573,-1.3304161,0.47395113,-13.459752,-5.514133,0.089885354,-5.609026,-5.059857,16.494062,-21.894077,-4.096326,0.42206576,-11.333517,-1.3872417,-3.2713804,-10.93199,-23.217623,17.585773,-5.8455405,10.063186,10.64027,-7.307282,-5.052741,4.909516,-14.456307,-0.29111686,-5.5998898,-8.419991
32.149353,-60.50108,-4.5732026,30.810984,3.4217622,-11.400307,-8.758615,7.9833937,-11.730771,10.65245,-6.7523513,15.319426,4.224244,3.9517136,-24.62443,-2.9153812,0.7748389,-30.239408,-1.6681839,2.886196,-9.616697,-0.47533637,9.572798,-29.033049,-1.334286,0.47483137,-17.25891,-6.011758,0.17155556,-9.922854,-4.96809,17.226439,-27.39386,-4.1215644,0.4351877,-14.975588,-1.4793456,-3.2149434,-12.234456,-23.217623,17.585773,-5.8455405,9.957829,10.144098,-10.557703,-5.200647,4.968595,-18.11436,-0.422397,-5.53087,-10.643774
31.886925,-60.478653,-3.9424195,30.74067,2.7731373,-11.762263,-8.867918,8.005132,-9.990358,10.808909,-6.731037,17.293882,4.1456323,3.6195667,-22.353033,-2.9320242,0.7837524,-23.889801,-1.7301933,2.9161367,-8.8991375,-0.4965789,9.326954,-25.671482,-1.3321437,0.47426698,-15.5998125,-5.7602525,0.1607193,-8.2543,-4.947758,17.694962,-25.846537,-4.0739803,0.4183362,-10.408911,-1.4503486,-3.2132287,-11.808885,-23.217623,17.585773,-5.8455405,9.976621,11.107063,-9.287292,-5.0759554,4.9321074,-15.250445,-0.4210905,-5.5296445,-10.820414
31.384485,-60.46628,-2.5217452,30.853535,4.456747,-10.848412,-8.807498,7.9957376,-10.898061,10.865194,-6.719586,17.82701,4.134253,3.6177366,-21.640009,-2.935569,0.785245,-21.205038,-1.7551738,2.9189827,-7.3671875,-0.5067661,9.113536,-25.53959,-1.3264408,0.47339603,-10.913903,-5.6065927,0.14859478,-6.580774,-4.9866977,17.099466,-24.418182,-4.0235114,0.32758817,-8.255179,-1.344272,-3.2948701,-10.422522,-23.217623,17.585773,-5.8455405,10.026073,10.101303,-8.384428,-5.047629,4.9288187,-14.658,-0.23835889,-5.6024523,-7.2646165
31.384485,-60.46628,-2.5719216,30.984013,5.85571,-10.137518,-8.765449,7.9833937,-11.5490055,10.772547,-6.755074,16.763123,4.1433578,3.3274322,-23.002586,-2.9186876,0.7769455,-25.214748,-1.624386,2.8829222,-11.659679,-0.51338816,8.860422,-26.049809,-1.3303165,0.47395113,-13.860107,-6.0761886,0.16912207,-10.692959,-4.9986525,16.97386,-24.418182,-4.0834355,0.4194274,-10.805324,-1.498492,-3.2081056,-13.209814,-23.217623,17.585773,-5.8455405,10.060358,9.592147,-7.9454794,-5.162011,4.9413114,-17.427301,-0.41531456,-5.5220666,-9.388603
31.830936,-60.475338,-3.7420805,30.896759,4.9188647,-10.622128,-8.890311,8.01003,-9.5859,10.774068,-6.762217,16.759287,4.1433578,3.770911,-21.225405,-2.935569,0.785245,-23.225218,-1.7336998,2.9172578,-8.631079,-0.4862678,9.648058,-25.26193,-1.3321437,0.47426698,-14.25088,-5.776148,0.1607193,-8.478629,-5.007171,17.052103,-22.84854,-4.057634,0.33288342,-9.509081,-1.3613491,-3.288019,-10.692267,-23.217623,17.585773,-5.8455405,9.957829,9.821256,-9.635164,-5.1898108,4.971302,-17.929674,-0.32393122,-5.549899,-8.41779
31.763096,-60.475338,-3.6790352,30.99663,5.529547,-10.313278,-8.877137,8.005132,-9.782508,10.780605,-6.785099,16.722904,4.16432,3.2280893,-23.445892,-2.9371908,0.7857165,-23.064823,-1.730753,2.9161367,-8.961948,-0.48646423,9.235475,-28.579885,-1.334286,0.47447035,-15.366881,-5.7477846,0.1607193,-8.042663,-5.040443,16.307928,-25.73238,-4.095581,0.42206576,-11.333517,-1.3671783,-3.2730546,-10.715508,-23.217623,17.585773,-5.8455405,9.933164,9.676149,-10.513082,-5.370796,4.982529,-21.3811,-0.20859978,-5.6028275,-6.3960886
31.96283,-60.480988,-4.127741,30.930712,5.30163,-10.428473,-8.952785,8.017686,-8.753079,10.780605,-6.7812285,16.74016,4.268654,3.205894,-26.923649,-2.9182146,0.7757331,-28.820208,-1.6199198,2.8783085,-13.051904,-0.4965412,8.834405,-30.751642,-1.3398128,0.4758053,-17.167234,-6.2074556,0.18720457,-13.778521,-4.9841337,16.842691,-27.409475,-4.1769533,0.46375832,-17.750317,-1.5716559,-3.1101046,-17.662346,-23.217623,17.585773,-5.8455405,9.829031,10.140159,-12.55894,-5.566097,5.2177596,-26.75161,-0.64075315,-5.4907923,-12.6442995
31.989006,-60.480988,-4.194595,30.860518,5.01395,-10.559832,-8.956715,8.017686,-8.676182,10.85816,-6.7517915,17.702137,4.3460855,3.3473864,-27.791344,-2.9153812,0.7748389,-30.426748,-1.5707344,2.865134,-17.830057,-0.47615644,9.279692,-30.796637,-1.3367274,0.47527084,-18.29048,-6.8268127,0.38629985,-19.765347,-4.9522142,17.209448,-27.656918,-4.2077956,0.46587396,-18.127327,-1.6827307,-3.081606,-18.94236,-23.217623,17.585773,-5.8455405,9.914783,10.642951,-10.265982,-5.5353093,5.153397,-22.599756,-0.6806448,-5.48842,-14.079759
32.358627,-60.50943,-5.178345,30.812025,4.4250503,-10.880066,-9.013124,8.03022,-7.8569593,10.821286,-6.738818,17.435328,4.3460855,2.866035,-27.791344,-2.9043715,0.7635174,-40.097893,-1.430168,2.8113904,-26.78814,-0.48665127,8.660557,-34.64577,-1.3561757,0.49098518,-22.720888,-6.973381,0.4159725,-20.539059,-4.970476,16.55058,-37.152313,-4.3515663,0.553507,-28.3766,-2.297634,-2.9103088,-21.496317,-23.217623,17.585773,-5.8455405,9.691587,9.034401,-15.494728,-5.6624503,5.3648443,-29.972576,-0.7245338,-5.4879575,-15.888034
31.903515,-60.480988,-4.020362,30.93876,5.4561763,-10.339586,-9.001104,8.026332,-7.987074,10.821286,-6.7402716,17.423498,4.273382,2.7254016,-26.923649,-2.9046614,0.7635174,-40.505306,-1.4318862,2.8113904,-26.78814,-0.49069104,8.720081,-32.939816,-1.3518343,0.49098518,-23.741877,-7.072373,0.49236065,-21.72613,-4.9676604,16.765558,-27.738062,-4.35645,0.5301286,-28.57608,-2.3920004,-2.89134,-22.12126,-23.217623,17.585773,-5.8455405,9.761338,9.248282,-14.690349,-5.673877,5.2570186,-29.005032,-0.8001505,-5.4828825,-17.506083
31.723013,-60.475338,-3.4699469,30.93876,5.576527,-10.284501,-8.962893,8.023189,-8.492846,10.869498,-6.7418947,17.74331,4.3460855,2.9073558,-27.946209,-2.9054856,0.7635174,-40.667065,-1.4296826,2.8119824,-26.627275,-0.5035099,8.508037,-32.939816,-1.3518343,0.49098518,-25.806648,-6.948531,0.42636988,-20.359983,-4.990107,16.497381,-27.799503,-4.356194,0.5172868,-28.450447,-2.4000497,-2.8955977,-22.184233,-23.217623,17.585773,-5.8455405,9.709663,8.700045,-16.683577,-5.665791,5.2096066,-29.123625,-0.7688361,-5.4874287,-17.167898
31.847967,-60.478653,-3.850197,31.080788,6.591047,-9.747967,-9.001104,8.026332,-7.9916496,10.774068,-6.7707677,16.531698,4.273382,3.2071924,-27.078514,-2.9054856,0.7635174,-40.667065,-1.4296826,2.8119824,-26.627275,-0.4965412,8.805569,-30.791986,-1.3518343,0.49098518,-25.806648,-6.948531,0.42636988,-20.359983,-4.999038,16.383034,-27.66849,-4.356194,0.5172868,-28.450447,-2.4000497,-2.89134,-22.40035,-23.217623,17.585773,-5.8455405,9.709663,8.696042,-16.683577,-5.665791,5.2096066,-29.123625,-0.7688361,-5.4881406,-17.167898
31.847967,-60.478653,-3.850197,31.100199,7.002331,-9.543588,-8.935358,8.01701,-8.9984455,10.678053,-6.8234253,15.357403,4.3460855,3.764552,-37.18729,-2.9054856,0.7635174,-40.172215,-1.4515452,2.8119824,-26.607677,-0.4673378,9.112875,-32.939816,-1.3518343,0.49098518,-25.63908,-7.0435066,0.47469047,-21.542204,-4.947975,16.868998,-37.064953,-4.3780994,0.53026867,-28.480913,-2.402684,-2.8845327,-22.40035,-23.217623,17.585773,-5.8455405,9.618364,9.1388,-17.488077,-5.7003207,5.2388377,-32.863075,-1.0456052,-5.3456116,-25.946442
31.89099,-60.478653,-3.9548957,31.076511,6.4591436,-9.830489,-8.952785,8.017686,-8.727369,10.626552,-6.8213463,14.91399,4.3460855,3.6170886,-27.791344,-2.9043715,0.7635174,-40.010456,-1.5168307,2.8261435,-24.528708,-0.45737162,9.4244175,-32.939816,-1.3561757,0.49098518,-23.714334,-6.970535,0.43213233,-20.47252,-4.963464,16.766045,-27.666237,-4.3072186,0.5301286,-27.824186,-2.3010323,-2.9088848,-21.898615,-23.217623,17.585773,-5.8455405,9.709663,9.102943,-16.683577,-5.6971498,5.2570186,-30.599873,-0.8011452,-5.4833245,-17.167898
32.171066,-60.494278,-4.694511,31.099634,6.8980947,-9.601574,-8.877137,8.005132,-9.702506,10.576234,-6.8257666,14.103868,4.3460855,3.649231,-27.791344,-2.9046614,0.7730339,-35.142635,-1.5330734,2.8391254,-22.380287,-0.45912406,9.523387,-32.939816,-1.3561757,0.49098518,-23.779194,-6.970535,0.4537282,-20.47252,-4.9675736,16.872606,-27.544823,-4.3229012,0.5301286,-27.419645,-2.2643092,-2.919912,-21.228022,-23.217623,17.585773,-5.8455405,9.791404,9.238769,-14.0293045,-5.7078333,5.2570186,-29.972576,-0.7456897,-5.4869533,-16.053259
31.883419,-60.478653,-3.932928,31.12993,7.1590543,-9.463744,-8.732118,7.9833937,-11.984662,10.584733,-6.8177357,14.507941,4.163255,3.819428,-22.200449,-2.9153812,0.7748389,-29.724049,-1.6779299,2.886196,-9.387716,-0.49634477,9.375589,-25.012945,-1.3366364,0.47447035,-14.268757,-6.236866,0.22232687,-14.231573,-5.037668,16.410643,-24.601719,-4.1638966,0.46449202,-17.65566,-1.5095309,-3.1044428,-13.842564,-23.217623,17.585773,-5.8455405,9.914783,8.537871,-11.538963,-5.556426,5.135086,-25.063923,-0.65213066,-5.4910607,-12.687378
31.989017,-60.498093,-4.268715,31.076511,6.5064197,-9.798947,-8.724297,7.973626,-12.109745,10.6942425,-6.7887287,15.893365,4.118857,4.031025,-20.134787,-2.9351876,0.785245,-23.495554,-1.7526536,2.9189827,-7.203818,-0.50645536,9.42502,-23.225052,-1.3321437,0.47426698,-13.386391,-5.6982512,0.16304131,-7.554104,-5.0691047,16.236013,-23.347643,-4.138188,0.4297778,-16.024725,-1.4302659,-3.2623615,-11.533783,-23.217623,17.585773,-5.8455405,10.026073,8.807989,-9.763252,-5.380102,5.028228,-21.317606,-0.4474578,-5.52649,-11.157838
32.229454,-60.494278,-4.9013023,31.04512,6.0395403,-10.045859,-8.723201,7.973626,-12.191664,10.739886,-6.7663774,16.435154,4.100202,4.4252644,-18.855608,-2.935569,0.785245,-20.640907,-1.799403,2.9328854,-6.123159,-0.4854864,9.849981,-22.730747,-1.3298384,0.47096044,-9.635521,-5.573742,0.0909688,-5.954177,-5.1045103,15.805306,-21.575712,-4.0701885,0.33441412,-10.048783,-1.3181405,-3.3004103,-9.989923,-23.217623,17.585773,-5.8455405,10.126346,9.250891,-6.753625,-5.220687,4.964197,-18.049604,-0.18254115,-5.610555,-5.391499
32.462227,-60.535957,-5.497616,30.930712,5.1377764,-10.512118,-8.625927,7.9563794,-13.557474,10.562751,-6.815004,14.467634,4.0667777,3.8255877,-18.964151,-2.935569,0.785245,-21.338003,-1.7740526,2.9318357,-7.2271953,-0.51307744,9.303835,-22.281736,-1.3327665,0.47130945,-10.442172,-5.587863,0.094527215,-6.490923,-5.1120405,15.868284,-20.876337,-4.114116,0.34742445,-12.531682,-1.450143,-3.273826,-11.800092,-23.217623,17.585773,-5.8455405,10.152389,9.429484,-6.1995187,-5.278218,5.0071135,-19.428873,-0.2379638,-5.6060247,-7.0864396
32.71107,-60.58287,-6.1251974,30.769938,3.3943446,-11.409243,-8.608174,7.952786,-13.770714,10.635392,-6.784143,15.486439,4.0173216,3.4911017,-17.48155,-2.9439878,0.79018664,-14.750958,-1.8256453,2.9349163,-3.8885233,-0.48952615,9.799709,-22.77986,-1.3304161,0.47084463,-10.331224,-5.5686436,0.072124235,-6.0833116,-5.0316095,17.040981,-20.916304,-4.0431795,0.3283271,-8.975005,-1.3304492,-3.299004,-10.230061,-23.217623,17.585773,-5.8455405,10.185351,10.014229,-5.0509443,-5.1698484,4.926769,-16.500643,-0.15628979,-5.6227627,-4.4434385
32.677685,-60.527626,-6.047461,30.779144,3.7613325,-11.210119,-8.606835,7.952786,-13.834577,10.507452,-6.8083515,13.338812,3.9877536,2.662114,-17.48155,-2.9426596,0.7894041,-15.933559,-1.8240136,2.9349163,-3.9615386,-0.51307744,9.323989,-22.32281,-1.3303165,0.47105926,-10.053472,-5.605391,0.09210815,-6.356644,-5.056918,16.883322,-19.089092,-4.038022,0.32804358,-8.766232,-1.3297006,-3.3006241,-10.180237,-23.217623,17.585773,-5.8455405,10.266081,10.477733,-2.890487,-5.1210794,4.913007,-15.33012,-0.151191,-5.623573,-4.218739
33.034187,-60.558125,-6.894217,30.747162,3.2439182,-11.5016985,-8.652331,7.967552,-13.021644,10.484563,-6.771614,12.464043,4.058487,2.9086542,-19.976805,-2.9320242,0.7837524,-23.047455,-1.7694902,2.9200325,-6.5755334,-0.4787932,9.69582,-26.0207,-1.3304161,0.47395113,-13.350827,-5.68581,0.15031855,-7.236246,-5.000916,17.042713,-23.529606,-4.070558,0.33482647,-10.152908,-1.4103107,-3.281207,-11.215106,-23.217623,17.585773,-5.8455405,10.086988,9.650952,-7.1727,-5.256789,4.988159,-19.021822,-0.12062875,-5.6144695,-3.6103513
32.727936,-60.513992,-6.227377,30.840431,4.0705347,-11.051673,-8.7923975,7.9957376,-11.069355,10.513269,-6.801395,12.99679,4.1456323,2.5710595,-24.62443,-2.9320242,0.7837524,-23.880705,-1.6595818,2.8871431,-9.8631935,-0.46575668,9.660439,-29.512716,-1.334286,0.47447035,-15.699674,-6.0643153,0.16902284,-10.263181,-4.9483423,17.4387,-27.513725,-4.0913763,0.42195684,-11.131139,-1.4790249,-3.2149434,-12.229427,-23.217623,17.585773,-5.8455405,9.914783,11.008781,-10.731917,-5.298044,5.028076,-20.209738,-0.27090555,-5.550331,-7.382334
32.727936,-60.508198,-6.2589397,30.853535,5.0177217,-10.568298,-8.933292,8.016745,-9.090169,10.568891,-6.803095,13.89939,4.1433578,2.1262105,-24.611639,-2.9054856,0.7730339,-34.51314,-1.6630883,2.8839884,-9.771038,-0.4862678,9.30463,-28.560104,-1.3367274,0.47527084,-16.137344,-6.2074556,0.18685742,-13.778521,-4.95263,17.4387,-27.498407,-4.150138,0.45869792,-16.121838,-1.5968958,-3.0975492,-18.117548,-23.217623,17.585773,-5.8455405,9.933164,9.23594,-11.114305,-5.5496335,5.1096115,-22.416973,-0.5945343,-5.5051007,-10.134987
32.727936,-60.508198,-6.24369,30.907377,5.134182,-10.5114,-8.792596,7.9957376,-11.100124,10.554794,-6.828256,13.824282,4.155728,2.3986602,-24.611639,-2.9153812,0.7748389,-30.275337,-1.6969477,2.889042,-8.344535,-0.48646423,9.116401,-29.470425,-1.3367274,0.47483137,-16.009813,-6.149282,0.18112293,-12.14538,-5.0016584,16.836466,-25.709167,-4.157029,0.4595061,-16.833908,-1.6046245,-3.0975492,-18.206097,-23.217623,17.585773,-5.8455405,9.976621,9.383615,-10.078061,-5.5421486,5.094133,-22.599756,-0.3892333,-5.5290823,-8.639041
31.993082,-60.488487,-4.303948,31.12993,7.2579193,-9.403284,-8.769208,7.987145,-11.456608,10.55566,-6.8228636,14.078961,4.134253,3.0520072,-22.943615,-2.914267,0.7748389,-30.262512,-1.6768217,2.885604,-9.480253,-0.4862678,9.373293,-27.774769,-1.3364851,0.47426698,-13.799507,-6.198345,0.16560024,-12.122694,-5.019555,16.617851,-24.666523,-4.0863824,0.42975083,-10.333429,-1.5696858,-3.1077826,-17.657461,-23.217623,17.585773,-5.8455405,9.983695,9.263394,-9.164938,-5.52497,5.2149024,-22.760897,-0.5325367,-5.5064616,-8.846821
31.993082,-60.488487,-4.303948,31.065664,7.1517763,-9.494994,-8.602118,7.9555063,-13.866527,10.298337,-6.8783207,10.994848,4.19655,3.614539,-24.540926,-2.9043715,0.7730339,-34.5034,-1.5892648,2.867013,-16.417112,-0.42596036,10.222358,-30.791986,-1.3410687,0.47483137,-16.743872,-6.8766794,0.38829404,-19.952532,-4.953411,16.735128,-27.440498,-4.2126007,0.43502176,-18.45389,-1.8726231,-3.0516539,-20.016342,-23.217623,17.585773,-5.8455405,9.809691,9.241228,-12.239621,-5.6642423,5.308026,-30.599873,-0.5901423,-5.5044804,-9.157734
32.236378,-60.494278,-4.871808,31.16644,8.082709,-8.976807,-8.661294,7.967552,-12.944684,10.234518,-6.899834,10.137094,4.3460855,3.0185027,-36.636917,-2.9043715,0.7635174,-40.097893,-1.437662,2.8113904,-27.000477,-0.44771713,9.456056,-34.64577,-1.3561757,0.49098518,-22.555279,-7.0569725,0.46429303,-22.007002,-4.9716277,16.335062,-38.347214,-4.424358,0.55231816,-26.73891,-2.51924,-2.8331282,-25.78767,-23.217623,17.585773,-5.8455405,9.738241,8.203529,-15.509279,-5.751346,5.3696938,-33.6702,-0.9843671,-5.4017243,-24.079258
32.218086,-60.494278,-4.833743,31.12993,7.498572,-9.292074,-8.64483,7.967552,-13.170898,10.28109,-6.8611846,10.655425,4.3460855,2.9429545,-27.791344,-2.9054856,0.7635174,-41.326107,-1.4318862,2.8119824,-26.523962,-0.42030725,9.84252,-37.5499,-1.369822,0.496132,-40.558178,-7.10722,0.4959171,-21.814966,-4.898371,16.970695,-37.814693,-4.710217,0.7303507,-39.086327,-2.6431026,-2.628825,-31.153748,-23.217623,17.585773,-5.8455405,9.57159,8.557233,-19.585598,-5.802041,5.250309,-34.880306,-1.0540212,-5.329346,-26.200436
32.232872,-60.52204,-4.846217,31.157305,7.8156643,-9.129138,-8.503086,7.9229603,-15.687708,10.3762455,-6.8538957,11.716474,4.3460855,3.64077,-27.78457,-2.9050126,0.7635174,-41.477818,-1.4324309,2.8119824,-26.564327,-0.40559873,10.03935,-38.93832,-1.369822,0.496132,-39.497154,-7.0549893,0.45958847,-21.814966,-4.942634,16.674568,-37.352585,-4.654646,0.6797478,-35.98834,-2.4667082,-2.8070292,-25.714499,-23.217623,17.585773,-5.8455405,9.761338,8.890855,-15.382762,-5.80111,5.2921925,-34.643578,-1.0828418,-5.323122,-26.712051
37.188267,-61.742672,-18.803719,30.24262,-0.7344934,-13.582307,-8.192114,7.8134623,-20.263414,9.836214,-6.720779,3.4366496,4.9381127,4.07869,-53.256836,-2.8674052,0.71531343,-68.95759,-1.2195647,2.7373972,-33.993034,-0.32603526,9.76528,-65.8368,-1.4258629,0.5731342,-80.5936,-8.268924,1.1635952,-37.486965,-4.92934,15.52589,-47.480404,-4.9489737,1.0375376,-66.11946,-3.0351346,-2.5519617,-35.261673,-23.217623,17.585773,-5.8455405,10.570984,7.940031,5.3524785,-4.9436164,4.869686,-11.294045,-0.16318086,-5.618155,-4.74764
40.99352,-64.65786,-32.448933,29.773144,-4.840899,-15.538259,-7.1330166,7.2377405,-37.896416,7.3581963,-6.5269346,-24.86945,5.42652,9.040076,-62.315826,-2.877563,0.68121195,-79.94693,-1.0273521,2.5531719,-47.540337,-0.14696372,13.365993,-75.05385,-1.4254483,0.62121594,-104.846,-9.233664,1.9368612,-49.263397,-4.8445454,16.382051,-68.737045,-5.1116514,1.6749345,-93.877365,-3.824253,-1.9083065,-48.423836,-23.217623,17.585773,-5.8455405,10.649989,2.721038,0.87277305,-4.8672442,4.858894,-9.574617,-0.027046751,-5.634664,-1.69195
39.7938,-63.399494,-27.698391,30.091745,-2.093944,-14.2180395,-6.8461404,6.988753,-43.46345,6.845461,-6.238597,-32.01369,5.332185,7.437387,-60.989014,-2.8617318,0.6432209,-106.88347,-0.94128615,2.4520419,-53.102932,-0.24919756,11.066298,-69.13093,-1.4254483,0.617269,-103.053566,-9.264377,2.052642,-50.27722,-4.80901,15.886929,-66.17014,-5.0961933,1.6842307,-94.2876,-3.8293839,-1.8524693,-49.14079,-23.217623,17.585773,-5.8455405,10.32725,4.7533345,-2.9083397,-4.7715836,4.8432727,-7.429605,0.07019805,-5.635139,0.36136985
38.879818,-62.773018,-24.344383,29.798645,-3.8347132,-15.179855,-6.870577,7.004615,-42.906982,6.468252,-5.981099,-37.295677,5.189045,6.825134,-59.792778,-2.8615577,0.6432209,-106.88347,-0.8699959,2.3581333,-58.589745,-0.26379943,10.456484,-68.987335,-1.4135115,0.5861329,-94.8292,-9.331589,2.1734984,-51.484905,-4.7578626,15.684629,-65.4702,-4.9784293,1.5250472,-90.98178,-3.8088253,-1.8260605,-49.329464,-23.217623,17.585773,-5.8455405,10.126346,5.8279896,-4.090556,-4.66465,4.8320675,-5.0535808,0.08918257,-5.624062,0.6983914
38.123913,-61.961872,-22.889757,29.295282,-6.030145,-16.554169,-6.813216,6.893021,-44.31992,6.11854,-5.6705017,-43.135956,5.0857363,6.5247416,-57.856293,-2.8615577,0.6432209,-106.6199,-0.80975664,2.2340605,-64.44329,-0.27710137,10.013513,-67.74101,-1.4135115,0.5795508,-92.98156,-9.413243,2.2854412,-52.961597,-4.709362,15.000479,-64.42224,-4.9820876,1.5690589,-96.73943,-3.9347763,-1.7102888,-51.30725,-23.217623,17.585773,-5.8455405,9.867985,5.5156016,-7.024976,-4.60412,4.827927,-3.7084537,0.055519495,-5.5609093,0.9939181
39.402935,-62.773018,-26.18184,29.400982,-6.4150324,-16.45282,-6.7386913,6.813885,-45.80205,6.225518,-5.7482524,-41.465958,5.1896915,7.2426324,-59.566143,-2.8615577,0.6432209,-106.6355,-0.8554185,2.336903,-59.91459,-0.24617048,10.495974,-74.54495,-1.4111611,0.58766025,-94.42752,-9.427395,2.2891734,-53.091557,-4.710527,15.482434,-70.05622,-5.0525527,1.7453824,-97.296455,-3.9028254,-1.7542843,-50.704456,-23.217623,17.585773,-5.8455405,9.760329,4.8325567,-12.665656,-4.7195535,4.837057,-6.265999,0.043704383,-5.6188273,-0.05422251
41.64487,-64.503975,-33.664394,29.68348,-4.7380304,-15.5854645,-6.833048,6.9400973,-43.77405,5.8880434,-5.4628606,-46.46252,5.3317437,8.795354,-58.63425,-2.8617318,0.6432209,-106.75905,-0.7806705,2.1730728,-68.219055,-0.3007735,9.570446,-70.916115,-1.4230763,0.6203939,-106.39259,-9.807178,2.8455517,-60.068226,-4.8215604,14.923553,-71.04188,-5.092145,1.8423225,-101.00936,-4.245657,-1.319587,-57.82426,-23.217623,17.585773,-5.8455405,9.812257,6.9280205,-13.266076,-4.738178,4.838816,-6.6783404,0.15795095,-5.6340575,2.1497943
41.26313,-64.450005,-32.634125,29.893942,-3.789859,-15.078609,-6.967901,7.089345,-41.09688,5.8880434,-5.4572377,-46.57988,5.259607,6.8296947,-60.055927,-2.8643184,0.6432209,-107.50425,-0.78523076,2.1829593,-67.92198,-0.3100065,9.654616,-71.00651,-1.4254483,0.62121594,-104.95064,-9.727228,2.7083175,-58.443954,-4.8773875,14.721954,-69.796875,-5.0914454,1.8556224,-101.07732,-4.1777134,-1.4350221,-56.09255,-23.217623,17.585773,-5.8455405,9.914783,6.9280205,-11.845696,-4.8290076,4.850767,-8.72183,0.009343958,-5.635051,-0.9872234
40.68474,-63.80295,-30.34561,29.627882,-5.2673717,-15.831955,-6.9133725,7.041956,-42.115635,5.874558,-5.4352174,-46.907356,5.1459723,5.2558737,-58.63425,-2.8617318,0.6432209,-106.75905,-0.78607935,2.1870925,-67.19138,-0.32683533,9.325902,-68.80035,-1.4230763,0.61935353,-105.76649,-9.577337,2.4855437,-55.631947,-4.8543606,14.852842,-67.34406,-5.086127,1.8666548,-101.87609,-4.125214,-1.5044631,-54.911057,-23.217623,17.585773,-5.8455405,9.887784,6.780794,-12.042419,-4.6997094,4.837057,-5.8197145,-0.10360318,-5.616828,-3.2302694
40.480953,-63.80023,-30.121557,29.575441,-5.091582,-15.857295,-6.8258986,6.9400973,-43.95166,5.850929,-5.4037056,-47.4224,5.0886574,4.0751863,-59.193356,-2.8617318,0.6432209,-106.75905,-0.7806705,2.1730728,-68.219055,-0.34126234,9.019841,-69.14325,-1.4230763,0.619778,-105.99576,-9.515145,2.3939857,-54.51393,-4.8855333,14.336202,-67.876976,-5.090032,1.8442997,-101.16792,-4.124687,-1.5044631,-54.911057,-23.217623,17.585773,-5.8455405,9.867985,5.5074067,-12.417368,-4.6228504,4.8291225,-4.1109657,0.045201372,-5.635139,-0.25867373
40.480953,-63.791023,-29.843382,29.539125,-6.0043116,-16.195227,-6.803951,6.9369555,-44.117016,5.839784,-5.359198,-47.882957,5.1278667,3.3260581,-61.512,-2.8617318,0.6432209,-106.88347,-0.80818945,2.2321615,-65.15767,-0.32603526,9.301604,-70.92813,-1.4230763,0.61829776,-105.42087,-9.331312,2.1619341,-51.35881,-4.8895245,14.394449,-70.17248,-5.097672,1.8422252,-100.65574,-3.9854777,-1.6958656,-51.79103,-23.217623,17.585773,-5.8455405,9.932776,4.632673,-13.205819,-4.5954227,4.827333,-3.4750948,0.11164354,-5.634767,1.185285
40.432,-63.64018,-29.571976,29.54994,-5.639048,-15.9961,-6.77284,6.9037347,-45.053913,5.838374,-5.328655,-48.345108,5.067857,3.0103936,-59.193356,-2.8626342,0.6432209,-107.10334,-0.80818945,2.2321615,-65.149284,-0.32603526,9.411169,-70.47213,-1.4230763,0.6156735,-104.110344,-9.424702,2.265823,-52.80678,-4.878656,14.659748,-68.66475,-5.100841,1.7832329,-98.549034,-3.9761734,-1.7115462,-51.600964,-23.217623,17.585773,-5.8455405,9.914395,4.379096,-13.210769,-4.610591,4.827927,-3.8009803,0.08519782,-5.635139,0.57671064
40.441666,-63.701534,-29.70789,29.551466,-5.9169807,-16.121355,-6.791472,6.930399,-44.443123,5.872689,-5.3980575,-47.5178,5.087948,2.4385948,-61.9472,-2.8617318,0.6432209,-106.960945,-0.81536484,2.2556987,-64.18266,-0.32603526,9.312904,-70.87622,-1.4246956,0.6206864,-105.29222,-9.468369,2.3242266,-53.645767,-4.8604355,14.870963,-69.77987,-5.097672,1.8422252,-100.65574,-4.011333,-1.6718358,-52.22138,-23.217623,17.585773,-5.8455405,9.867985,5.0310063,-13.345427,-4.5271187,4.8259735,-1.9581103,0.11968814,-5.6346436,1.359563
40.740746,-63.94914,-30.685453,29.743984,-4.8532333,-15.591003,-6.850342,6.999657,-43.34958,5.872689,-5.3963256,-47.605522,5.1278667,3.0464265,-61.9472,-2.8617318,0.6432209,-106.73513,-0.78607935,2.1870925,-67.2662,-0.31301904,9.411169,-74.21711,-1.4250695,0.62121594,-105.65999,-9.550287,2.4211369,-54.820797,-4.8601837,14.852842,-71.04188,-5.085189,1.8783273,-102.49588,-4.0925555,-1.5579368,-54.112255,-23.217623,17.585773,-5.8455405,9.887397,4.840421,-13.292232,-4.628751,4.8291225,-4.203492,0.08377457,-5.635139,0.55087084
40.88158,-63.960667,-31.173758,29.777756,-4.5750146,-15.431509,-6.9036264,7.013328,-42.41282,5.8490596,-5.339929,-48.03093,5.1167965,3.0464265,-61.512,-2.8618715,0.6432209,-106.960945,-0.80113924,2.2264793,-65.45651,-0.32722238,9.009179,-74.21711,-1.4254483,0.62121594,-104.03284,-9.584279,2.4703736,-55.511597,-4.8566675,14.826583,-71.47055,-5.0849323,1.8919328,-102.98785,-4.070416,-1.5863234,-53.672665,-23.217623,17.585773,-5.8455405,9.887397,5.446701,-12.392757,-4.6181254,4.828379,-3.9664135,0.16724712,-5.6331897,2.3459673
41.29253,-64.26262,-32.199486,29.618423,-5.896234,-16.040928,-6.779487,6.9369555,-44.282467,5.6788354,-5.187038,-50.806828,5.2384,3.6399572,-66.57761,-2.8617318,0.6432209,-106.63515,-0.7770819,2.1640272,-68.64082,-0.26093224,10.138603,-74.267555,-1.4254483,0.62121594,-104.03284,-9.742922,2.7364447,-58.823605,-4.7628436,15.583586,-77.46108,-5.072789,1.9605042,-105.69372,-4.1997933,-1.4067265,-56.35108,-23.217623,17.585773,-5.8455405,9.760329,5.635079,-15.668981,-4.628751,4.8291225,-4.203492,0.08519782,-5.635139,0.57671064
41.398853,-64.28889,-32.699116,29.528141,-6.2845073,-16.227787,-6.8076825,6.9569826,-44.02796,5.5961623,-5.1333556,-52.13005,5.3317437,5.3882146,-66.59763,-2.8617318,0.6432209,-106.61123,-0.7627689,2.1231625,-70.751305,-0.24992783,10.325078,-74.59472,-1.4254483,0.62121594,-104.846,-9.771481,2.8083382,-59.526157,-4.760977,15.673921,-78.86202,-5.072789,1.9605042,-105.69372,-4.280843,-1.284796,-58.464718,-23.217623,17.585773,-5.8455405,9.6618805,4.7695065,-19.341576,-4.8045793,4.879283,-8.108836,0.0149825085,-5.6239166,-0.7956192
40.570866,-63.860268,-30.221292,29.484365,-6.285936,-16.290293,-6.7692103,6.923348,-44.805553,5.626589,-5.151521,-51.713707,5.289795,5.004786,-64.56474,-2.8617318,0.6432209,-106.61123,-0.7770819,2.1640272,-68.64082,-0.2544668,10.325078,-74.267555,-1.4254483,0.62121594,-104.846,-9.666118,2.615874,-57.408535,-4.784003,15.388505,-75.738884,-5.072789,1.9605042,-105.69372,-4.124943,-1.5142384,-54.79274,-23.217623,17.585773,-5.8455405,9.844812,4.407496,-15.017992,-4.6759815,4.834034,-5.3707223,0.1175096,-5.635139,1.3153023
41.29253,-64.26262,-32.196053,29.33222,-7.0547457,-16.632364,-6.6927958,6.843311,-46.531174,5.571629,-5.0921903,-52.677635,5.4032583,4.7897434,-69.19293,-2.8617318,0.6432209,-106.61123,-0.75376695,2.092704,-72.24537,-0.24992783,10.021666,-76.0271,-1.4254483,0.62121594,-104.846,-9.771481,2.8109012,-59.526157,-4.7322044,15.622014,-81.7646,-5.072789,1.9605042,-105.69372,-4.280843,-1.2659984,-58.71077,-23.217623,17.585773,-5.8455405,9.6618805,4.5520496,-19.510435,-4.761492,4.8740616,-7.091947,-0.06865448,-5.6123614,-2.3757577
41.05674,-64.18112,-31.69511,29.377035,-7.0297675,-16.58247,-6.7521377,6.900221,-45.150227,5.5961623,-5.1333556,-52.13005,5.3317437,4.8080955,-68.49174,-2.8617318,0.6432209,-106.63515,-0.7566556,2.1036756,-71.737404,-0.2815323,9.686808,-75.11716,-1.4254483,0.62121594,-104.03284,-9.727392,2.7098615,-58.503532,-4.798645,15.000271,-77.46108,-5.072789,1.9605042,-105.69372,-4.2666073,-1.314939,-57.924995,-23.217623,17.585773,-5.8455405,9.812257,4.2451606,-15.710405,-4.71974,4.8384113,-6.2835407,0.009878026,-5.617139,-1.1651357
40.997704,-64.161316,-31.497185,29.158236,-8.246555,-17.232828,-6.8022404,6.9369555,-44.17237,5.6605463,-5.165599,-51.204643,5.3317437,4.2888236,-68.517456,-2.8617318,0.6432209,-106.61123,-0.77012426,2.1419587,-69.6955,-0.2815323,9.768215,-75.32745,-1.4254483,0.62121594,-104.846,-9.7059965,2.6727068,-58.119797,-4.7834573,15.199122,-78.77121,-5.072789,1.9605042,-105.69372,-4.242294,-1.346602,-57.306236,-23.217623,17.585773,-5.8455405,9.570581,4.5553718,-20.259075,-4.7658405,4.8740616,-7.220829,-0.0643419,-5.6157923,-2.437419
38.030186,-62.30102,-21.192423,29.655369,-5.5574317,-15.940681,-7.8466067,7.6659136,-26.041824,6.6307144,-6.093289,-35.042976,4.6046605,6.70229,-27.946745,-2.8790398,0.73813486,-64.00208,-1.00784,2.4999151,-47.575016,-0.38466564,10.74936,-40.897923,-1.4235125,0.5667802,-81.53488,-9.024862,1.8285455,-46.43741,-5.053535,16.564919,-35.30387,-4.912498,1.1639807,-69.87375,-3.4467397,-2.2100084,-41.4867,-23.217623,17.585773,-5.8455405,9.933164,8.111635,-13.146726,-4.7906284,4.890807,-7.881287,-0.09620549,-5.6096945,-2.9516203
30.741398,-61.315598,0.9728322,30.064627,-3.1702502,-14.757279,-8.875289,8.020724,-10.338179,9.045435,-6.975566,-3.4745915,3.4563284,2.5856807,1.4666245,-2.9545717,0.7910496,-9.590514,-1.6533043,2.9131405,-12.160068,-0.6413558,9.285203,-1.0280719,-1.3616519,0.4814671,-23.193125,-5.926507,0.14681797,-9.4418955,-5.2021227,17.992954,-4.892497,-4.098356,0.33652657,-11.377081,-1.0388768,-3.3373473,-6.5315914,-23.217623,17.585773,-5.8455405,10.4822645,17.251522,2.9496748,-4.7513313,4.8397384,-6.9182324,-0.042479355,-5.6339474,-2.1426048
31.1246,-61.315598,-0.96996456,30.721354,1.5922549,-12.229316,-8.955747,8.033883,-8.835578,9.54138,-6.924033,0.5087729,3.5903466,3.084325,-2.1285672,-2.954606,0.7910496,-9.7440195,-1.6273268,2.9119952,-12.877692,-0.62183416,9.00861,-7.577861,-1.3436642,0.4763203,-19.027811,-5.815298,0.10384191,-8.296618,-5.1974454,17.531784,-7.6783977,-4.117617,0.34074667,-12.287962,-1.2231389,-3.3172143,-8.817911,-23.217623,17.585773,-5.8455405,10.293056,17.251522,-1.7957643,-4.7945843,4.8465624,-7.955731,-0.14047156,-5.6276813,-4.4696846
32.089966,-61.148304,-4.334938,30.649319,1.4592887,-12.359895,-9.156264,8.053454,-5.7882743,10.062434,-6.9277706,8.167181,3.5939589,2.6298652,-3.8753104,-2.9546893,0.79122305,-9.381256,-1.7012148,2.926315,-9.860996,-0.60922897,8.945999,-9.319675,-1.3398128,0.47269884,-14.389163,-5.77793,0.08540309,-8.005843,-5.16462,17.625223,-7.879062,-4.08411,0.3338882,-10.664299,-1.2608103,-3.3122587,-9.216682,-23.217623,17.585773,-5.8455405,10.327813,15.730307,-0.4761535,-4.8077807,4.8484936,-8.223948,-0.19003263,-5.624201,-5.3664684
31.908022,-61.31669,-3.897993,30.86847,2.939965,-11.660326,-9.104033,8.042373,-6.4890122,10.014892,-6.934331,7.301317,3.6253521,2.8812382,-3.85627,-2.9546893,0.79122305,-9.138131,-1.7012148,2.926315,-9.860996,-0.61709166,8.715129,-10.493163,-1.3436642,0.4763203,-18.912169,-5.668117,0.090763114,-6.848854,-5.188662,17.531784,-8.6761875,-4.08411,0.3338882,-10.664299,-1.247429,-3.3162458,-8.961027,-23.217623,17.585773,-5.8455405,10.298323,15.409869,-2.609675,-4.8451896,4.855978,-9.132973,-0.10528866,-5.630867,-3.4911172
32.352238,-60.80045,-5.182099,30.664507,1.9305502,-12.162648,-8.330564,7.8726416,-18.162111,10.200536,-6.687489,8.5654125,3.9698176,2.13453,-18.55711,-2.9394884,0.7864077,-20.12069,-1.672778,2.9105315,-11.944505,-0.6037198,7.3948483,-22.270699,-1.3231671,0.47053322,-6.240686,-5.534653,0.085798346,-5.692203,-5.1265073,15.69764,-21.200758,-4.118709,0.42548358,-12.921972,-1.4552723,-3.2554321,-11.953931,-23.217623,17.585773,-5.8455405,10.195699,10.505255,-5.891791,-5.340004,5.036389,-21.422445,-0.19370192,-5.6080866,-6.005797
33.48048,-60.921486,-8.44987,30.664507,1.8706057,-12.201225,-8.486706,7.9209795,-15.769819,10.264109,-6.777256,10.195082,3.921874,1.9142966,-16.699064,-2.9468741,0.79043937,-13.329994,-1.772918,2.9317062,-7.9477386,-0.5849017,8.173005,-18.663206,-1.318369,0.4693668,-4.220331,-5.341463,0.04815941,-3.5588703,-5.061961,16.969484,-17.194317,-4.0623693,0.32948837,-9.836699,-1.3446578,-3.2963593,-10.3264,-23.217623,17.585773,-5.8455405,10.2657175,11.501078,-2.9692538,-5.144612,4.960551,-16.72782,-0.107416935,-5.618642,-3.4293826
33.283855,-60.75767,-7.7400956,30.752657,2.8751402,-11.680699,-8.407603,7.9007397,-16.89896,10.187377,-6.8636885,9.715478,3.921874,2.4535427,-16.417488,-2.9474435,0.7906835,-12.758732,-1.8262932,2.9375014,-4.3792267,-0.5337142,9.196186,-18.905455,-1.3199996,0.4693668,-4.410116,-5.3258634,0.046902347,-3.3759916,-5.0123563,17.9489,-15.888912,-4.0264797,0.32582796,-8.231927,-1.206603,-3.3209445,-8.477721,-23.217623,17.585773,-5.8455405,10.395928,12.115597,0.5224104,-4.955242,4.875141,-11.571401,0.0012168048,-5.6347985,-1.2864693
33.364834,-60.75767,-7.95102,30.769938,3.3386939,-11.442259,-8.446461,7.9038053,-16.250416,10.620845,-6.8025446,14.862909,3.9231265,2.9173315,-15.067225,-2.9495335,0.7910739,-12.307478,-1.9086794,2.9399934,0.07400291,-0.5654109,8.717778,-17.532871,-1.3235554,0.46949244,-6.898408,-5.3491926,0.045492593,-3.5725098,-5.096837,16.943787,-13.892141,-4.040183,0.32685217,-8.734232,-1.2524105,-3.31239,-9.255069,-23.217623,17.585773,-5.8455405,10.457184,11.3538065,1.5467875,-4.948354,4.8746824,-11.536895,-0.109836675,-5.6305823,-3.5139046
34.256638,-60.89274,-10.498494,30.743704,2.8355615,-11.728942,-8.360097,7.886895,-17.598217,10.443853,-6.785616,12.330158,3.9695818,2.5229723,-17.6274,-2.935569,0.78465706,-21.153683,-1.8149314,2.9361901,-4.3772774,-0.5794652,8.403338,-17.827978,-1.3240765,0.4701984,-6.874634,-5.427482,0.053084627,-4.37121,-5.066498,17.1137,-15.023389,-4.1119456,0.34221417,-11.9899235,-1.371248,-3.2917838,-10.743759,-23.217623,17.585773,-5.8455405,10.445669,10.618105,1.0067828,-5.0062203,4.889347,-12.848103,-0.16062053,-5.6265154,-4.650915
34.501,-61.12825,-11.451576,30.769938,3.02622,-11.598299,-8.377648,7.8850236,-17.367397,10.349081,-6.8186355,11.099725,4.058487,2.4810417,-21.07482,-2.9343011,0.7844787,-23.811153,-1.8075396,2.9357579,-4.6874084,-0.54370695,9.05437,-19.293192,-1.3266238,0.47028953,-8.412782,-5.440403,0.053296685,-4.4792657,-5.0243077,17.492207,-17.844828,-4.1209164,0.34221643,-12.631856,-1.4133803,-3.2846303,-11.310632,-23.217623,17.585773,-5.8455405,10.531062,10.118917,2.875455,-5.047172,4.8940578,-13.72447,-0.08080701,-5.632143,-3.0477636
34.490444,-61.1935,-11.307766,30.762981,2.8317332,-11.692281,-8.267617,7.851406,-18.85978,10.221489,-6.860862,10.222371,4.032305,2.1543334,-20.21829,-2.9439054,0.7898778,-15.485014,-1.850468,2.939868,-2.6205812,-0.54370695,8.785782,-21.06368,-1.3250408,0.46949244,-7.2842097,-5.2978806,0.04257439,-3.0637364,-5.019143,17.424793,-18.873255,-4.0706553,0.33279705,-10.087679,-1.3234516,-3.3018265,-10.168283,-23.217623,17.585773,-5.8455405,10.3154545,11.412046,-1.3378164,-4.928291,4.8673077,-10.92583,-0.010985877,-5.634769,-1.5631124
34.503536,-60.92461,-11.050758,30.747162,2.905938,-11.6537285,-8.567296,7.9452577,-14.436721,10.291963,-6.8811903,10.8085375,4.0214343,1.5907835,-20.456861,-2.946452,0.79043937,-14.121823,-1.9450965,2.938848,1.9290948,-0.51234525,9.323637,-22.190943,-1.3250408,0.46949244,-7.3089952,-5.1972957,0.03875187,-1.9782281,-4.9665904,18.307281,-18.32399,-4.0495043,0.3283271,-9.2124405,-1.280108,-3.3097923,-9.543249,-23.217623,17.585773,-5.8455405,10.293056,11.061977,-2.5175607,-4.892285,4.860633,-10.119911,-0.0591517,-5.6332717,-2.55214
34.500698,-60.828583,-10.900099,30.779144,3.5822234,-11.310924,-8.541761,7.931559,-14.779707,10.267825,-6.9004245,10.333608,4.0213084,1.7350277,-20.525694,-2.9454553,0.7903486,-14.061087,-1.9593698,2.938848,2.7222886,-0.4784196,9.83656,-24.615047,-1.328027,0.46972176,-8.712991,-5.2446904,0.0418114,-2.5344684,-4.96451,18.0926,-19.807919,-4.0729876,0.33279705,-10.248445,-1.3022813,-3.3048384,-9.763558,-23.217623,17.585773,-5.8455405,10.126346,10.945443,-5.8752675,-4.9094515,4.8665323,-10.563904,-0.014257514,-5.634493,-1.543871
34.057472,-60.760796,-9.874112,30.769938,3.277763,-11.459288,-8.716732,7.973626,-12.27481,10.286821,-6.8860035,10.648728,4.042352,2.094987,-20.28359,-2.9471645,0.7906835,-13.275981,-1.9594346,2.938848,2.5041907,-0.456998,10.264759,-25.817854,-1.3277407,0.46958357,-8.294792,-5.27935,0.04464132,-2.8776855,-4.9452024,18.353632,-20.30638,-4.0424833,0.32804358,-8.872728,-1.2732432,-3.3102057,-9.328709,-23.217623,17.585773,-5.8455405,10.152389,10.717425,-5.2217526,-4.9278674,4.8673077,-10.9906025,-0.023972822,-5.634013,-1.7615398
33.922512,-60.806152,-9.370932,30.779144,3.4137688,-11.396363,-8.716549,7.973626,-12.227429,10.354138,-6.896365,11.354896,4.0698934,2.3432562,-21.188843,-2.943946,0.7898778,-15.122052,-1.9359833,2.938848,1.5712982,-0.47513366,9.964589,-24.905838,-1.3303165,0.47072443,-10.120152,-5.3829694,0.049600404,-3.89492,-4.9596853,18.06576,-20.944128,-4.069763,0.33279705,-10.062824,-1.2540027,-3.3132017,-9.194686,-23.217623,17.585773,-5.8455405,10.125361,10.028848,-5.80102,-4.9119735,4.8665323,-10.618912,-0.0591517,-5.6332717,-2.55214
33.775448,-60.756027,-8.949263,30.75915,2.938543,-11.642614,-8.651643,7.9563794,-13.191137,10.3545065,-6.8677278,11.357627,4.0105186,2.7571847,-18.124271,-2.9468946,0.7906013,-13.610593,-1.9477874,2.9398727,1.9897932,-0.4789253,9.946851,-23.195848,-1.3284541,0.46972176,-8.805818,-5.315077,0.043440033,-3.206316,-4.956455,18.24608,-19.555452,-4.0583415,0.32903683,-9.566158,-1.1803727,-3.3249784,-8.203317,-23.217623,17.585773,-5.8455405,10.254568,10.75395,-2.9171243,-4.953334,4.8746824,-11.545153,-0.056620255,-5.6335745,-2.3461955
34.500698,-60.89274,-11.047111,30.743704,2.802812,-11.7359915,-8.521481,7.931559,-15.102011,10.307219,-6.8684764,10.82743,4.1014304,2.5742986,-21.736216,-2.9422588,0.78902394,-16.28066,-1.9286122,2.9399934,1.2240793,-0.4755864,9.770299,-26.412844,-1.334286,0.4713638,-12.092211,-5.39434,0.048239022,-4.05665,-4.9922442,17.399136,-22.008972,-4.098477,0.33702928,-11.35769,-1.2732688,-3.3112478,-9.453806,-23.217623,17.585773,-5.8455405,10.158606,10.295442,-4.8320055,-4.9981627,4.8827333,-12.554481,-0.07443545,-5.6326118,-2.8552854
33.96115,-60.807796,-9.599417,30.75915,3.0323975,-11.612934,-8.496814,7.9207177,-15.603961,10.286344,-6.8880672,10.751609,4.095173,2.9160337,-20.682314,-2.9420147,0.7894954,-16.145624,-1.9035914,2.9399934,-0.100040756,-0.4858942,9.772222,-23.472866,-1.3321437,0.47097462,-10.903677,-5.387604,0.04815941,-3.9716823,-4.987748,17.673243,-20.294058,-4.091081,0.33641765,-11.008014,-1.3143718,-3.3035023,-10.025792,-23.217623,17.585773,-5.8455405,10.22409,11.129716,-2.8270364,-4.9781613,4.8808894,-12.1003685,-0.1654424,-5.6264277,-4.881224
33.375404,-60.58402,-7.89017,30.769938,3.0064013,-11.602999,-8.351793,7.8850236,-17.752531,10.181287,-6.9047484,9.512856,4.1433578,2.9148583,-22.30453,-2.9441054,0.79018664,-14.4701,-1.8975219,2.938848,-0.5673097,-0.44734347,10.327972,-25.13681,-1.3264408,0.46958357,-7.691596,-5.3558774,0.048026964,-3.7273428,-5.025122,17.233019,-19.406286,-4.0403814,0.32685217,-8.755327,-1.2652954,-3.3119402,-9.228143,-23.217623,17.585773,-5.8455405,10.314981,11.202566,-1.0704157,-5.109925,4.907255,-15.116342,-0.06029315,-5.632669,-2.3512669
33.154716,-60.547966,-7.384325,30.920094,4.7650604,-10.697659,-8.317841,7.864746,-18.322695,10.133083,-6.9260187,8.747824,4.1433578,2.5239427,-23.435415,-2.9427772,0.7898778,-14.766876,-1.8832822,2.938848,-1.1725767,-0.4419648,10.217964,-27.988478,-1.3266238,0.46958357,-8.001559,-5.3533626,0.048026964,-3.6455019,-5.0633597,16.302437,-21.82144,-4.053169,0.32903683,-9.31124,-1.277299,-3.3099825,-9.445262,-23.217623,17.585773,-5.8455405,10.261289,10.323451,-2.648641,-5.176659,4.9289804,-16.674128,0.026098832,-5.635139,-0.56253254
33.057064,-60.639828,-7.3217764,30.810984,3.2137344,-11.504864,-8.293192,7.8534727,-18.637184,10.299392,-6.9082956,10.641906,4.06641,2.4464743,-20.537603,-2.9482925,0.79093134,-12.802377,-1.8898252,2.9399934,-0.70961106,-0.44734347,10.224908,-26.977512,-1.3321437,0.47116047,-11.103722,-5.6212664,0.07054388,-6.315778,-5.0170507,17.1661,-21.557325,-4.0390916,0.32804358,-8.794994,-1.3143917,-3.3031626,-9.943899,-23.217623,17.585773,-5.8455405,10.373789,11.828014,-0.24052928,-5.2747564,4.964696,-18.954084,0.049240664,-5.635139,-0.13523372
33.67671,-60.70923,-8.804535,30.701805,2.1023932,-12.066476,-8.260534,7.8499312,-19.102062,10.199221,-6.920868,9.423055,4.0429997,2.7560093,-19.446638,-2.9473143,0.7906835,-13.2488365,-1.8962529,2.9399934,-0.32216048,-0.42583078,10.882465,-25.89669,-1.3304161,0.47026867,-10.450909,-5.5385985,0.062429093,-5.534033,-4.957021,18.059021,-21.449244,-4.025501,0.32459328,-8.077209,-1.3199784,-3.3024375,-10.05997,-23.217623,17.585773,-5.8455405,10.299951,12.744178,-1.2026036,-5.148009,4.9249263,-15.959899,-0.058008097,-5.632985,-2.382227
33.63824,-60.756027,-8.716327,30.620459,1.7657616,-12.242015,-8.27961,7.8499312,-18.832266,10.278529,-6.9116125,10.236692,4.0235405,2.772595,-18.630556,-2.9484544,0.7908861,-12.966221,-1.8925431,2.9399934,-0.56565773,-0.42622194,10.779822,-25.696081,-1.3304161,0.47026867,-10.621475,-5.530825,0.059324753,-5.461404,-4.9709306,17.979246,-20.691988,-4.0185738,0.32339838,-7.7172475,-1.254772,-3.315217,-9.112847,-23.217623,17.585773,-5.8455405,10.36853,12.46584,-0.38793758,-5.1010604,4.9060845,-14.859759,-0.096959226,-5.6314254,-3.4379833
33.54258,-60.75466,-8.407411,30.769938,3.0435681,-11.58432,-8.214971,7.8303304,-19.756361,10.231027,-6.9058113,10.005158,4.0978656,2.8300433,-20.952242,-2.9423394,0.7894954,-15.840004,-1.9085107,2.9399934,0.1538194,-0.4378431,10.223977,-30.62203,-1.3398128,0.47547045,-16.79003,-5.661433,0.07786298,-6.699688,-4.9807096,17.404835,-23.599623,-4.1004386,0.33702928,-11.515048,-1.3242934,-3.302502,-10.084379,-23.217623,17.585773,-5.8455405,10.251986,11.9449215,-2.211214,-5.0267696,4.889347,-13.188566,-0.08482989,-5.632077,-3.1045918
32.8562,-60.60373,-6.458787,30.863415,3.8431876,-11.1776495,-8.298652,7.8544073,-18.492624,10.189082,-6.934719,9.449717,4.1433578,2.400877,-23.379875,-2.9438593,0.78978646,-15.790616,-1.8963892,2.938848,-0.52189255,-0.42520413,10.11145,-32.477917,-1.3398128,0.4758053,-18.031742,-5.7597504,0.105348945,-7.9004855,-5.0555606,16.235271,-25.192814,-4.0920634,0.33641765,-11.018057,-1.3205615,-3.3028772,-10.013337,-23.217623,17.585773,-5.8455405,10.373765,10.692396,-0.24571055,-5.1007586,4.907255,-14.895903,-0.049302377,-5.633604,-2.3159583
34.00756,-60.882782,-9.811603,30.769938,3.2201605,-11.502697,-8.377643,7.8850236,-17.417633,10.017706,-6.9663143,7.140031,4.1879077,1.945376,-26.633408,-2.9361002,0.78744,-19.723318,-1.840854,2.9380376,-2.8946862,-0.42672518,9.650757,-35.628525,-1.3436642,0.47665516,-21.041754,-5.8597555,0.123010725,-8.789239,-5.0825663,15.64017,-27.144953,-4.1987343,0.36209652,-16.09635,-1.518366,-3.2637053,-12.7049,-23.217623,17.585773,-5.8455405,10.266081,10.941838,-2.685935,-5.1908712,4.934342,-16.969181,-0.18690425,-5.624539,-5.296352
34.20094,-60.754967,-10.271832,30.56573,1.4917097,-12.410369,-8.2738495,7.8499312,-18.882301,10.056694,-6.9447927,7.8574834,4.12389,2.3986602,-22.210663,-2.9361002,0.78744,-19.181898,-1.903319,2.9399934,-0.07665625,-0.39228964,10.645408,-34.179195,-1.3398128,0.47269884,-15.826596,-5.5313635,0.058593478,-5.4419317,-5.054767,16.119379,-24.845057,-4.1196847,0.34074667,-12.345394,-1.2712423,-3.3118732,-9.34404,-23.217623,17.585773,-5.8455405,10.3771925,11.323593,0.9633938,-4.9633493,4.8746824,-11.7727785,-0.107789256,-5.630831,-3.496969
33.544018,-60.68061,-8.411336,30.622547,1.7754987,-12.244379,-8.166904,7.821689,-20.668236,10.153998,-6.9225445,9.0508375,4.060412,2.8316448,-19.271566,-2.9417398,0.78902394,-16.69037,-1.8499277,2.939868,-2.7050095,-0.4419648,10.108287,-29.219334,-1.3367274,0.47145835,-13.798207,-5.4539104,0.052981637,-4.6455975,-5.1661806,15.19863,-19.672539,-4.0736394,0.330854,-10.19099,-1.3814182,-3.2912066,-10.857659,-23.217623,17.585773,-5.8455405,10.450441,11.286005,1.2312713,-4.977475,4.8761487,-12.0566225,-0.19226125,-5.6243906,-5.3852863
33.68633,-60.756027,-8.855098,30.702808,2.3509078,-11.927215,-8.151507,7.821689,-20.785057,10.05766,-6.9454675,7.8105316,4.105235,3.151456,-20.101583,-2.94526,0.79043937,-14.565794,-1.8438027,2.9397404,-2.9808664,-0.4419648,10.269712,-27.60177,-1.3398128,0.47199282,-14.344178,-5.3511176,0.04464132,-3.5652049,-5.1569986,15.577372,-19.029362,-4.0785284,0.33279705,-10.425754,-1.3089602,-3.307324,-9.880288,-23.217623,17.585773,-5.8455405,10.439428,12.184527,0.9561336,-4.8747187,4.8564997,-9.774572,-0.042436346,-5.6339474,-2.1349194
32.53934,-60.601032,-5.698486,30.883656,4.2431316,-10.969662,-8.098214,7.7841406,-21.618135,10.269834,-6.9088116,10.202516,4.125638,3.8363278,-19.754318,-2.9440634,0.79018664,-15.28163,-1.818736,2.9385011,-4.2055774,-0.42622194,10.501831,-27.578238,-1.3304161,0.47013867,-10.352445,-5.3690457,0.04670693,-3.7893026,-5.0661516,16.551529,-20.383593,-4.051714,0.3283271,-9.281758,-1.3269671,-3.3023329,-10.15139,-23.217623,17.585773,-5.8455405,10.441743,13.410695,2.427535,-5.0405445,4.892384,-13.510745,0.05513488,-5.635139,-0.12583293
32.35063,-60.496838,-5.2360687,30.840431,4.288755,-10.949447,-8.0963335,7.7841406,-21.677055,10.044405,-6.9347034,7.786184,4.1456323,3.0231042,-22.341291,-2.9392316,0.78816634,-17.506262,-1.7871265,2.935903,-5.8449244,-0.42001438,10.677648,-28.955513,-1.3277407,0.46958357,-8.536634,-5.346539,0.04815941,-3.5619915,-5.009389,16.959442,-22.936203,-4.0400815,0.32685217,-8.7379265,-1.3351103,-3.3004656,-10.22753,-23.217623,17.585773,-5.8455405,10.192216,12.875492,-2.8526824,-5.0675535,4.901996,-14.140809,0.09754059,-5.635041,0.9171447
32.3974,-60.496838,-5.262851,30.77868,3.4845116,-11.3709,-8.0212,7.7572813,-23.211012,9.852281,-6.950758,5.4788814,4.221752,3.4560506,-24.612688,-2.9320242,0.7837524,-24.413857,-1.6728828,2.912863,-10.858908,-0.39188185,10.928584,-32.61716,-1.3321437,0.47426698,-14.9121685,-5.876416,0.17155556,-9.632458,-4.96218,17.099466,-27.40676,-4.1101494,0.42572394,-12.0227375,-1.6385918,-3.2099433,-14.438674,-23.217623,17.585773,-5.8455405,10.029902,12.128737,-6.587024,-5.22245,4.964197,-18.195885,0.009878026,-5.6182456,-1.1651357
32.917126,-60.60909,-6.8539133,30.82019,3.7162929,-11.256142,-8.071992,7.776171,-22.14181,9.800398,-6.9673486,4.7365036,4.209117,2.765728,-27.071741,-2.9342096,0.7834447,-25.723524,-1.6509153,2.9082494,-12.832501,-0.38466564,10.821425,-34.165157,-1.3436642,0.47665516,-21.009193,-6.27718,0.20473109,-14.3031025,-5.0016375,16.489655,-27.304388,-4.1744504,0.45670915,-16.862436,-1.7065198,-3.1495364,-17.410723,-23.217623,17.585773,-5.8455405,10.086988,10.706834,-6.698978,-5.3000565,5.0071135,-20.019438,0.042893235,-5.618083,-0.26164028
32.06611,-60.488487,-4.388452,30.738949,3.0671027,-11.604173,-8.036503,7.7572813,-22.672314,9.934044,-6.941978,6.407264,4.209117,3.2071924,-24.62443,-2.9359944,0.78465706,-21.789688,-1.7338823,2.927524,-9.027086,-0.4378431,9.845009,-32.46372,-1.3321437,0.47426698,-14.221703,-5.6667385,0.14648448,-6.9269457,-5.0417185,15.966823,-26.934944,-4.091034,0.33844706,-11.027925,-1.5225317,-3.2614558,-12.740887,-23.217623,17.585773,-5.8455405,9.989661,10.155825,-8.634711,-5.20234,4.939878,-17.312645,0.14452575,-5.626853,1.8533895
32.06611,-60.488487,-4.5057774,30.762323,3.9752576,-11.255612,-8.10826,7.7856026,-21.658646,10.137298,-6.8854904,8.770757,4.273382,3.8255877,-27.078514,-2.9287179,0.7828582,-24.541342,-1.6706114,2.9105315,-11.619256,-0.42076474,9.876993,-34.124813,-1.3321437,0.47408113,-14.463826,-5.804838,0.16555135,-8.83747,-5.0362344,15.645949,-27.331884,-4.1750126,0.45670915,-16.834354,-1.6385918,-3.1662273,-16.76688,-23.217623,17.585773,-5.8455405,9.887784,9.795741,-11.304291,-5.3941646,5.0201445,-21.742912,-0.01010344,-5.6126747,-1.2623394
32.06611,-60.488487,-4.411495,30.755829,3.8016262,-11.329091,-8.038256,7.762009,-22.561497,10.199297,-6.864349,9.458302,4.19655,4.027698,-22.990845,-2.9346826,0.78457004,-21.377213,-1.7569966,2.9301107,-8.090351,-0.4378431,9.954842,-30.410797,-1.3266238,0.47339603,-11.402808,-5.68581,0.15031855,-7.236246,-5.085472,15.368306,-25.740574,-4.073638,0.33482647,-10.170855,-1.4721115,-3.2707117,-12.047336,-23.217623,17.585773,-5.8455405,10.176073,9.400968,-4.8300233,-5.246848,4.957751,-18.309273,0.0333255,-5.6223807,-0.4647018
32.724426,-60.548874,-6.324828,30.93876,5.5696373,-10.293031,-8.15015,7.795478,-20.937946,10.090282,-6.8967175,8.497103,4.251108,4.000238,-24.599897,-2.9320242,0.7837524,-23.568039,-1.6261507,2.881538,-11.857167,-0.42030725,10.325011,-32.857803,-1.3321437,0.47408113,-14.214755,-6.133053,0.18436965,-11.4014,-5.054733,15.744899,-27.45926,-4.1595154,0.4537298,-15.82542,-1.6383164,-3.174832,-16.614605,-23.217623,17.585773,-5.8455405,10.095975,9.678609,-6.981192,-5.38905,5.0179987,-21.350056,-0.18119143,-5.5548363,-4.41168
32.917126,-60.710148,-6.849262,30.684568,2.14891,-12.027348,-8.138223,7.799445,-21.074835,10.1459465,-6.865136,8.952907,4.183566,3.2293878,-23.446941,-2.939568,0.7864077,-19.965956,-1.7132589,2.9146712,-9.47946,-0.42371616,10.155526,-32.589592,-1.3321437,0.47426698,-13.835243,-5.74484,0.15656339,-7.8679137,-5.066019,15.801218,-26.922766,-4.09365,0.33844706,-11.127578,-1.5240082,-3.2566514,-12.841829,-23.217623,17.585773,-5.8455405,10.126346,10.250911,-5.9241962,-5.1976123,4.944231,-17.329317,0.017384345,-5.6304264,-0.7771379
