39.17901,-56.845993,-25.179005,30.093918,-2.9956331,-14.785627,-7.4054103,7.3043594,-33.320786,6.7410436,-5.6053333,-37.05151,4.663269,2.647675,-38.905083,-2.8836753,0.73080283,-67.42899,-1.147855,2.5719624,-36.849133,-0.41682473,9.472953,-35.61487,-1.3011634,0.5022762,-8.830091,-5.5197644,0.28743872,-6.64753,-4.8633137,16.48137,-51.263687,-4.87546,1.6873786,-82.97242,-3.5760484,-1.7035558,-46.410534,-23.308413,17.704967,-5.847501,8.409745,3.9158196,-54.7727,-6.787911,7.659651,-89.33256,-1.6148561,-4.8497877,-40.43716
42.022823,-66.6803,-34.401722,29.96383,-4.8792763,-15.727482,-6.558494,6.9552097,-48.543877,5.6955914,-5.2307367,-50.808464,5.032257,3.1716428,-50.548347,-2.84758,0.6883082,-90.18134,-0.91381717,2.474458,-46.278866,-0.42268378,8.901646,-40.44199,-1.304807,0.4996679,-7.347291,-5.3303337,0.11327424,-3.9531965,-4.754112,16.284563,-69.611176,-5.163555,2.1863077,-110.126526,-4.252079,-1.3684071,-56.690376,-23.309336,17.705389,-5.847499,7.598173,1.3893385,-78.50378,-7.1326427,8.21028,-105.37015,-1.9221075,-4.7418036,-46.7577
41.581116,-62.6992,-32.934364,29.757462,-6.8710737,-16.762564,-6.6176634,6.959957,-48.035004,5.352962,-5.0747533,-56.903664,5.000591,2.153242,-52.45909,-2.84218,0.6730573,-101.20699,-0.80192566,2.4115803,-53.973553,-0.44302517,8.92015,-36.38702,-1.2866278,0.48157108,3.901969,-4.758731,-0.25339693,3.2972941,-4.7820625,16.588722,-61.571632,-5.1018634,2.0473547,-104.18416,-4.0899568,-1.5202537,-53.72913,-23.310472,17.705315,-5.847501,8.249615,2.5630455,-60.218506,-6.7456064,7.6676474,-87.93442,-1.6113826,-4.954339,-38.26968
42.888954,-72.30985,-36.299286,29.364166,-9.819141,-18.308289,-6.3220453,6.803933,-52.368477,4.4648724,-4.863555,-65.86159,5.306535,0.93324924,-65.8899,-2.8211029,0.6428925,-122.916664,-0.48061657,2.2275794,-70.297424,-0.41554877,8.482075,-46.319527,-1.2855761,0.48155302,4.825404,-4.823225,-0.17779316,2.6968017,-4.7515087,15.783986,-74.55924,-5.3434615,2.3694,-121.25626,-4.775168,-1.0570178,-64.19323,-23.310665,17.70523,-5.8474994,7.5694227,0.8305025,-76.98985,-7.340808,8.352896,-110.94805,-1.9676101,-4.7149825,-47.09055
41.875896,-66.55704,-33.516205,29.703423,-6.2354336,-16.437605,-6.6217933,6.9225264,-46.834167,5.315403,-5.170137,-55.1904,5.065159,2.287075,-54.5981,-2.8491273,0.6892616,-97.605865,-0.8306637,2.4571106,-50.32874,-0.38167152,9.444034,-42.99238,-1.2917993,0.48749548,1.2570047,-4.8933587,-0.15917031,1.7281532,-4.705269,16.619717,-73.40283,-5.292212,2.3411021,-119.21688,-4.4782753,-1.2411894,-59.799976,-23.30929,17.705153,-5.8475003,7.222081,0.43780327,-88.1132,-7.7187295,8.944606,-128.26787,-2.3078194,-4.5803437,-56.244675
41.167404,-65.33669,-31.336586,29.79249,-5.3822784,-16.003574,-6.6816363,6.9437723,-45.7302,5.5838094,-5.2304893,-51.927925,5.0189066,1.9419537,-53.328648,-2.852096,0.69063103,-94.78341,-0.86097056,2.465016,-49.639503,-0.38631165,9.516435,-41.76383,-1.2880952,0.480295,4.154438,-4.708725,-0.31542397,3.7720208,-4.747079,16.409487,-68.6529,-5.1902056,2.156065,-109.56677,-4.2175136,-1.451456,-55.921593,-23.30955,17.704994,-5.847501,7.6159067,0.82808495,-77.38092,-7.4226227,8.463968,-115.16294,-2.0064726,-4.714786,-49.442417
41.681423,-67.73032,-33.087204,29.60002,-7.562606,-17.113525,-6.46267,6.8298388,-49.655098,5.007443,-4.980666,-59.393913,5.1821585,1.7165494,-60.519787,-2.835339,0.6627706,-110.754265,-0.67802477,2.364379,-58.013855,-0.37671944,9.443923,-43.321407,-1.2855297,0.48020086,8.99588,-4.5076566,-0.41324836,6.3618026,-4.708255,16.391684,-74.234215,-5.287151,2.3258772,-118.475174,-4.4200034,-1.3007879,-58.69657,-23.310717,17.704948,-5.847501,7.463125,0.0018367767,-81.56212,-7.5191193,8.585068,-118.59466,-2.0720954,-4.6954412,-50.101864
42.05253,-69.1006,-34.153057,29.844233,-4.9025373,-15.764269,-6.598974,6.913144,-47.70102,5.6559734,-5.255231,-50.959877,5.3627067,2.7018843,-63.603695,-2.8296409,0.66026103,-111.214676,-0.66881716,2.340405,-60.603493,-0.36855575,9.148169,-48.35166,-1.3040262,0.50178343,-8.8091,-5.4093833,0.1634951,-5.2694345,-4.7102695,15.785602,-80.54556,-5.3725295,2.469062,-126.31875,-4.78109,-1.0037866,-65.32971,-23.3103,17.705357,-5.8475,7.037961,-0.7830744,-92.897064,-7.7388997,8.935204,-128.60776,-2.339735,-4.496279,-57.454597
40.218555,-60.0991,-28.437016,29.937141,-4.9142427,-15.727087,-6.8438206,7.020329,-43.0259,6.041218,-5.2709475,-46.778355,4.8961697,1.5992824,-48.871662,-2.852896,0.69105625,-88.40024,-0.951161,2.4933639,-44.76316,-0.41989878,9.232365,-33.66668,-1.2734412,0.46865642,16.066404,-4.346815,-0.41566592,8.702009,-4.745651,17.125973,-60.643593,-5.0625553,2.0394065,-100.001755,-3.9326792,-1.5525361,-51.08942,-23.311031,17.705456,-5.8475003,7.8109283,2.1217523,-72.22243,-7.2486763,8.403435,-110.425255,-2.0615761,-4.706377,-50.464764
43.83763,-74.65071,-39.418167,29.267155,-10.270956,-18.521078,-6.048735,6.636147,-57.43866,3.5856128,-4.4919853,-78.09583,5.35365,1.1299918,-67.10699,-2.8164918,0.6321316,-130.20041,-0.3831066,2.1642644,-75.80666,-0.39246047,8.7253895,-48.696327,-1.2854698,0.482215,4.8243666,-4.8181443,-0.17895071,2.3237724,-4.693721,16.04521,-81.39086,-5.485743,2.6044812,-135.72592,-5.1189446,-0.8066368,-70.43293,-23.311636,17.705269,-5.8475,7.197443,-0.652853,-87.79905,-7.658531,8.868973,-126.2599,-2.2418263,-4.597001,-53.85219
39.630516,-62.00363,-27.142853,30.039604,-3.5906749,-15.025362,-6.9310055,7.066348,-42.47006,6.102269,-5.3106503,-45.937706,5.0032873,1.1314325,-55.205395,-2.8390145,0.67139494,-103.00805,-0.7703794,2.3953323,-54.70653,-0.43645608,8.974923,-36.64155,-1.2834193,0.47358477,10.501949,-4.398119,-0.48092818,8.150593,-4.7503905,16.912077,-63.19834,-5.1142397,2.043321,-102.60625,-3.9973364,-1.5893124,-52.052967,-23.309263,17.705214,-5.8475,7.9469433,2.6370301,-67.70032,-7.051588,8.030662,-99.51635,-1.8117921,-4.842394,-43.61498
38.318726,-59.85682,-23.25959,30.146017,-1.9386063,-14.186131,-7.2082853,7.1669865,-37.925377,6.430823,-5.4497266,-42.114407,4.818469,1.2590697,-48.904392,-2.850941,0.6798892,-97.31295,-0.8007386,2.3740356,-54.98706,-0.4227935,9.320335,-38.758575,-1.2987901,0.4955305,-4.6394234,-5.1525416,0.02415809,-2.119233,-4.7524657,17.332415,-60.367386,-5.045384,1.975751,-99.53758,-3.879393,-1.5068517,-51.995567,-23.3096,17.704967,-5.8475,8.085794,3.47012,-63.664078,-6.955,7.999556,-98.33485,-1.8105931,-4.7628303,-45.211735
40.319717,-67.419945,-28.514206,29.863853,-4.8976116,-15.771686,-6.821372,7.043158,-43.922768,5.817919,-5.2858224,-48.25885,5.0257072,1.7029305,-55.268127,-2.8472607,0.6795579,-100.473656,-0.76091397,2.3723297,-56.190628,-0.3928573,9.176025,-42.890137,-1.2940307,0.49131894,-2.621307,-5.0481687,-0.07388541,-0.38584948,-4.78247,16.231327,-65.09427,-5.1010337,2.0265527,-101.77963,-4.106245,-1.476067,-53.960857,-23.312067,17.705273,-5.8474994,8.025597,2.190639,-64.91682,-6.931457,7.837342,-94.78914,-1.6554983,-4.8448124,-39.92502
41.499054,-67.6263,-32.617226,29.622395,-6.889037,-16.78378,-6.3981895,6.801976,-50.302773,4.94687,-4.9367723,-59.476692,5.051467,2.3326182,-54.107777,-2.846922,0.6829627,-96.956184,-0.8027997,2.4305863,-51.015434,-0.35777223,9.684387,-45.434566,-1.2946672,0.4905379,0.7376547,-4.864748,-0.27577376,2.108819,-4.727045,16.243204,-74.312,-5.254823,2.255452,-114.85247,-4.303575,-1.3895863,-56.61113,-23.310926,17.704983,-5.8475003,7.5519753,0.068935394,-79.35432,-7.39627,8.41927,-113.70958,-1.9825354,-4.7310967,-48.11404
40.830544,-62.299995,-30.87653,29.75725,-5.9844875,-16.309761,-6.802857,7.0017424,-44.086624,5.6822896,-5.176025,-50.954014,5.0434995,2.3811078,-52.922924,-2.8376756,0.6665298,-101.66599,-0.7700181,2.3903737,-55.121117,-0.41961706,9.082293,-41.482555,-1.2925998,0.49579656,-5.59724,-5.184803,0.0043928027,-2.253364,-4.747724,16.578665,-66.39213,-5.1876574,2.157629,-108.99498,-4.215277,-1.3606423,-55.64662,-23.311619,17.705305,-5.8474994,8.039741,2.7448058,-64.77719,-6.962518,7.948518,-96.02399,-1.8254102,-4.7882338,-44.181553
40.63085,-60.080925,-29.87564,30.214243,-2.820335,-14.635935,-6.8714786,7.0660157,-42.713074,6.6768904,-5.4771757,-38.588604,4.8749757,3.346867,-43.732155,-2.8643246,0.7157879,-73.8697,-1.1366751,2.5949087,-35.538853,-0.4175867,9.234646,-33.55991,-1.2918855,0.48844132,2.471529,-4.911377,-0.10233544,1.2872462,-4.8183875,16.305962,-58.441116,-4.9766655,1.8918029,-91.769394,-3.7413006,-1.7324162,-47.93804,-23.309374,17.705406,-5.8475,8.053734,1.8135538,-66.09361,-6.907974,7.861002,-93.97127,-1.7572515,-4.82914,-42.6524
38.059376,-56.66362,-22.341152,30.540306,0.6101332,-12.872007,-7.4365973,7.3493547,-33.76864,7.8300076,-5.954054,-24.125206,4.9280796,2.426321,-49.294952,-2.856796,0.6993952,-84.871025,-1.0315001,2.5292406,-43.48422,-0.4403051,9.121567,-34.591164,-1.2981285,0.49350643,-4.38208,-5.130163,-0.0059340596,-1.7223377,-4.8391247,16.487766,-55.160408,-4.873171,1.7113423,-84.14763,-3.4925718,-1.8577058,-45.192734,-23.308979,17.705307,-5.8475,8.37442,3.443201,-57.256443,-6.6355686,7.4269123,-82.66063,-1.5148028,-4.9154205,-38.025986
30.472807,-67.04156,0.8355379,30.27266,-2.472046,-14.475423,-8.495387,7.9506483,-16.17714,9.42385,-6.621519,-0.3467245,3.5468774,1.2415781,-4.251045,-2.9362674,0.8186881,-18.174152,-1.5869951,2.9278166,-13.550377,-0.65133274,7.6973214,-7.145836,-1.2899003,0.4844621,2.6942577,-5.245024,-0.17217217,-1.7945745,-5.203635,16.86517,-4.350889,-4.0736213,0.36146057,-8.451393,-1.2389286,-3.271624,-9.508805,-23.309618,17.705109,-5.847499,10.919924,14.52701,11.605843,-5.348544,5.2069006,-22.756657,-0.56639755,-5.505228,-13.950157
32.057053,-60.028027,-3.8098176,30.690609,1.0036135,-12.709295,-8.396978,7.9010878,-17.613974,9.777373,-6.500299,2.6772146,3.8541224,1.8733442,-12.857559,-2.9348586,0.81551003,-16.703205,-1.7176911,2.9136732,-8.453498,-0.55737585,8.58855,-16.851946,-1.2955425,0.4925126,-0.1452918,-5.155346,-0.064347684,-1.2359452,-5.1448026,16.476845,-15.022113,-4.0676093,0.4464746,-12.006562,-1.359387,-3.1676824,-11.407395,-23.309864,17.705128,-5.8475,10.526348,11.694618,0.95934534,-5.154219,5.185539,-19.285938,-0.34274226,-5.5597353,-9.250845
33.243694,-60.132385,-7.285385,30.811604,1.9320264,-12.241906,-8.386339,7.939039,-17.58382,9.923289,-6.6753373,4.897633,3.940673,2.4767342,-14.048686,-2.9373806,0.8217468,-12.281344,-1.8084496,2.962694,-3.4723446,-0.5351664,8.775033,-18.642015,-1.3025984,0.5013522,-5.7282915,-5.471294,0.18664633,-5.359332,-5.1347733,16.32886,-16.146503,-4.0644646,0.44683918,-12.195704,-1.4402097,-3.0983918,-12.778949,-23.309843,17.705147,-5.8475,10.410772,10.946104,-1.6015735,-5.2146354,5.231876,-21.19247,-0.34654891,-5.497524,-9.801156
33.21075,-65.68085,-6.812775,31.023079,4.018031,-11.183256,-8.305353,7.9539537,-18.834053,10.4919615,-6.94818,13.387743,4.1345997,3.2917833,-18.860197,-2.9397547,0.8297112,-8.264837,-1.8841062,3.0280118,0.7214899,-0.45256925,9.759688,-25.590017,-1.3015178,0.49816632,-5.2425165,-5.2756653,-0.0051541626,-2.676352,-5.126292,15.896186,-20.279787,-3.9955916,0.3129615,-4.9590654,-1.160301,-3.3604975,-8.014814,-23.310032,17.705141,-5.8474994,10.1925125,9.456998,-6.3861294,-5.093906,4.9292407,-14.254787,0.071816266,-5.639367,0.07024145
32.86782,-63.794907,-5.954467,31.101536,4.7596374,-10.789658,-8.62511,8.027847,-13.811241,10.768436,-6.826902,16.400372,3.996937,3.632029,-14.018977,-2.9409614,0.82784307,-8.998382,-1.9020755,3.0097413,0.7615304,-0.49807915,9.6183605,-18.487114,-1.2986546,0.49596906,-3.9496021,-5.218247,0.0071354955,-2.217118,-5.149934,16.186123,-14.873496,-3.9758873,0.31666356,-4.6172214,-1.1471466,-3.3316905,-7.97952,-23.30992,17.705128,-5.847499,10.360376,10.049908,-2.3879185,-4.8973947,4.8742466,-9.74992,0.032690108,-5.6405177,-0.8754964
33.10107,-52.990944,-6.9582434,30.98734,3.76574,-11.270824,-8.637665,7.9878087,-13.143295,10.450233,-6.738988,11.162692,3.9682696,3.590764,-12.892223,-2.93506,0.8193502,-13.123217,-1.835607,2.9683778,-2.481983,-0.5120356,9.49246,-16.62036,-1.301895,0.5000637,-6.130309,-5.3455024,0.064818166,-3.4901674,-5.1408954,16.3946,-15.013811,-4.0520062,0.41330045,-10.230383,-1.3384148,-3.2340536,-10.556402,-23.309933,17.705164,-5.8474994,10.342168,10.262748,-3.1728067,-4.9604907,5.005369,-11.426807,-0.10452461,-5.6052346,-4.0600734
32.782314,-57.10936,-5.9407463,31.078585,4.436682,-10.925379,-8.598191,7.993117,-13.969965,10.590206,-6.7237988,13.168943,3.9060383,3.3380392,-11.530178,-2.9392593,0.8229127,-11.198334,-1.8911251,2.9787982,-0.13964272,-0.5300141,9.266964,-14.8128195,-1.3013349,0.49984372,-5.7985897,-5.3068476,0.0680215,-3.2972426,-5.1203985,16.807034,-13.26824,-3.9996765,0.37274814,-7.216193,-1.1970991,-3.2800353,-8.809944,-23.309431,17.705109,-5.8474994,10.4579315,10.720531,-0.5393646,-4.8715463,4.920216,-9.005791,-0.10496506,-5.61789,-3.7249722
31.908545,-62.780853,-3.2742674,31.030102,4.159938,-11.0784445,-8.610293,8.02606,-14.098596,10.753973,-6.8952894,16.132393,3.9405215,3.0979228,-13.198855,-2.938367,0.8231877,-11.885994,-1.8511333,2.997278,-1.830853,-0.52935964,9.108048,-17.195105,-1.3040315,0.50152946,-7.599916,-5.414069,0.07525382,-4.574241,-5.127526,16.638706,-13.605305,-3.9977648,0.34094393,-5.8714647,-1.1590141,-3.3122444,-8.355926,-23.309658,17.705162,-5.847499,10.515602,11.309921,1.3790064,-5.030781,4.9680624,-13.29479,-0.1806796,-5.5831037,-5.5705037
32.36812,-57.579117,-4.7503204,30.988071,3.5682101,-11.381747,-8.482499,7.9824276,-15.749208,10.583964,-6.864427,13.340689,3.989383,3.1270492,-14.400195,-2.9386115,0.825691,-9.942184,-1.8495827,2.9981456,-1.8899043,-0.515804,9.182483,-19.032974,-1.3029987,0.4999233,-5.9642105,-5.3822284,0.05329606,-4.013492,-5.1494975,16.121933,-15.361286,-4.006471,0.34110868,-6.1348352,-1.1910313,-3.3159473,-8.607819,-23.309767,17.70518,-5.8474994,10.472803,10.825597,0.17213106,-5.018682,4.9242535,-11.933139,-0.09618461,-5.618427,-3.771603
32.464664,-69.37195,-4.663153,31.060787,4.2891726,-11.046089,-8.367408,7.962446,-18.185062,10.644176,-6.8723116,15.494761,4.055113,2.9037533,-17.51131,-2.9400084,0.8269482,-9.848118,-1.8798536,3.014637,0.28154445,-0.49102905,9.276371,-22.831802,-1.2990493,0.49681562,-4.0405116,-5.1841764,-0.03321138,-1.7997053,-5.121017,16.2463,-19.113968,-3.976116,0.33012897,-5.0323915,-1.0996376,-3.3535032,-7.4308596,-23.309818,17.705112,-5.847499,10.325585,10.429515,-3.6134672,-5.029426,4.9325247,-13.89198,-0.020306781,-5.626743,-1.9590194
32.716373,-67.21411,-5.4345145,31.109806,4.721773,-10.824847,-8.40099,7.9840865,-17.476938,10.680804,-6.881203,15.6378145,4.035333,2.9528878,-16.577381,-2.941603,0.82783246,-9.149962,-1.8988271,3.0137517,0.6167042,-0.49702424,9.275812,-20.999058,-1.2965219,0.4946702,-2.6828427,-5.161433,-0.0050061047,-1.7096734,-5.1190453,16.424612,-16.444136,-3.9486,0.29872078,-3.3478184,-1.0824401,-3.3429034,-7.344083,-23.30996,17.705156,-5.847499,10.404295,10.608327,-1.1743467,-4.950614,4.8736496,-11.365678,0.024376467,-5.6364408,-1.0964026
33.823635,-57.51947,-8.972988,30.921818,2.9640007,-11.697219,-8.2549,7.8994513,-19.440144,10.082643,-6.771726,6.8986387,4.0577936,3.049644,-16.64083,-2.9352686,0.8206278,-13.777177,-1.8382977,2.9750032,-2.2598681,-0.49759722,9.277912,-21.385471,-1.3042629,0.50171506,-7.6209583,-5.3944263,0.09450173,-4.053006,-5.0988054,16.627525,-18.609776,-4.0450454,0.41081986,-10.311203,-1.3361957,-3.2270062,-10.696717,-23.309505,17.705168,-5.8474994,10.326483,10.44927,-3.4460402,-4.9880605,4.9536614,-11.770185,-0.04693988,-5.6274424,-2.608321
33.78005,-54.59355,-8.974286,31.037914,4.145244,-11.074977,-8.622485,8.000543,-13.494252,10.542506,-6.799921,12.570246,3.9255183,3.62259,-11.478649,-2.9349847,0.82006705,-12.540922,-1.9092869,2.9925945,1.418417,-0.5264501,9.411061,-14.138523,-1.3047689,0.50141126,-7.5919933,-5.3380914,0.075789206,-3.3601854,-5.1008224,17.081493,-13.182192,-4.0358543,0.40115145,-9.304484,-1.2932719,-3.251637,-9.847286,-23.309639,17.705135,-5.8474994,10.415562,10.785036,-1.3687599,-4.870974,4.936974,-8.719648,-0.104546934,-5.617526,-3.6863472
33.198387,-60.14411,-6.991678,31.120914,4.9604745,-10.67949,-8.58283,8.005309,-14.361898,10.61536,-6.7553177,13.879635,3.994519,3.5920055,-14.047606,-2.9395182,0.8239975,-10.265388,-1.9003028,2.9866674,0.46748638,-0.49430943,9.647151,-18.111584,-1.299123,0.49764916,-4.6285467,-5.2466164,0.050089866,-2.6315784,-5.1217957,16.405428,-15.29745,-3.989131,0.35028213,-6.3185897,-1.2092026,-3.2867448,-8.982029,-23.309853,17.70515,-5.8474994,10.297432,9.66014,-4.1673627,-4.8828855,4.9079933,-9.559769,0.016628802,-5.63235,-1.1371732
33.355682,-60.409893,-7.503669,31.102777,4.6420197,-10.841613,-8.482264,7.9869347,-15.956691,10.628204,-6.842639,14.094624,4.014292,3.3232007,-15.106802,-2.9378011,0.8229784,-10.732747,-1.9037378,2.9979022,0.7745943,-0.5006852,9.4169235,-18.727388,-1.3013347,0.4979796,-5.3429317,-5.278184,0.04613006,-2.940022,-5.114066,16.501984,-15.294342,-3.9961395,0.34349963,-6.268104,-1.2200857,-3.2909749,-9.135654,-23.309895,17.705206,-5.8474994,10.408006,10.103275,-1.4581494,-4.9300394,4.88886,-10.163065,-0.033151776,-5.627963,-2.2322657
32.890953,-67.266235,-6.05573,31.04731,4.065146,-11.152332,-8.425384,7.9833546,-17.171484,10.638166,-6.8805933,15.0563,3.9759781,2.967429,-14.553349,-2.9398563,0.826521,-9.979641,-1.8970845,3.018019,0.85981274,-0.52273417,9.04941,-18.19067,-1.2989643,0.49535224,-3.6410627,-5.205637,-0.012617543,-2.0988934,-5.126118,16.590538,-14.60618,-3.9736462,0.3178501,-4.6529646,-1.1217592,-3.3323858,-7.8354483,-23.309834,17.705168,-5.847499,10.512675,11.133948,1.2084022,-4.9654245,4.88374,-11.584128,-0.06720056,-5.6261435,-2.9869378
33.096848,-52.028378,-6.8946195,31.034294,4.072004,-11.109921,-8.493176,7.973167,-15.130376,10.4393835,-6.8320236,11.0897045,4.0323873,3.4084234,-15.052782,-2.937324,0.82397,-10.674617,-1.8562504,2.987459,-1.4532471,-0.4899189,9.575124,-19.587067,-1.3015447,0.49956354,-5.626659,-5.3470006,0.06498936,-3.473496,-5.1362467,16.239542,-16.44947,-4.0266676,0.3704276,-7.969283,-1.2779641,-3.2789295,-9.611412,-23.309713,17.705162,-5.8474994,10.303883,10.003464,-3.8566277,-5.002941,4.969526,-11.681975,-0.032341108,-5.621305,-2.5643053
32.528053,-48.087326,-5.466432,30.91446,2.944981,-11.668018,-8.494318,7.9623036,-15.058836,10.327726,-6.794758,9.004248,3.9130833,3.1452808,-11.725877,-2.937456,0.82261,-11.236802,-1.8273847,2.9747283,-3.2420158,-0.53284246,9.120405,-15.498978,-1.3049103,0.5023555,-7.1551075,-5.504034,0.11326122,-5.3077865,-5.136621,16.37751,-12.985068,-4.0419245,0.38469142,-8.564664,-1.2957095,-3.2658277,-10.001741,-23.309565,17.70524,-5.8475,10.518614,10.883928,1.0924311,-5.0248427,4.985613,-11.7572775,-0.19514157,-5.5933867,-5.990649
33.127914,-59.737213,-6.7981534,31.01568,3.9702635,-11.190045,-8.341482,7.937718,-18.173182,10.425146,-6.8528357,11.620868,4.0895076,3.2299883,-17.817682,-2.937664,0.8243821,-10.420097,-1.8619715,2.9963186,-0.6295495,-0.468429,9.599995,-23.673399,-1.3042716,0.5013643,-6.804681,-5.353094,0.041655496,-3.6143427,-5.110836,16.012949,-19.983234,-4.028191,0.37119818,-7.9250965,-1.255645,-3.3053918,-9.473927,-23.309927,17.705212,-5.8474994,10.224111,9.369464,-6.2517924,-5.076659,4.977431,-14.046665,-0.026206486,-5.6208806,-2.0721838
33.408062,-66.26438,-7.448944,31.042572,4.0764885,-11.148908,-8.308088,7.9445424,-18.917492,10.454244,-6.8565226,12.611647,4.0634336,3.1039398,-16.979576,-2.9403245,0.8272491,-10.087068,-1.8931715,3.0110934,0.4108839,-0.48655742,9.4326105,-21.653946,-1.2993425,0.4959776,-3.9155936,-5.2203565,0.002329126,-2.2518394,-5.11392,16.380701,-17.322353,-3.982172,0.32699996,-5.32875,-1.1675769,-3.317009,-8.475532,-23.309893,17.705164,-5.847499,10.3553,10.115027,-2.5206227,-4.9878263,4.8984714,-12.1193695,0.017456502,-5.636664,-1.1238747
33.877567,-61.411987,-9.078796,30.930357,3.1119833,-11.63803,-8.406848,7.9451213,-17.29013,10.221276,-6.728443,8.864721,4.0024524,3.3657088,-14.642774,-2.935933,0.82145554,-12.707609,-1.8545405,2.979844,-1.2620277,-0.50854564,9.28481,-18.64219,-1.3024565,0.49939415,-5.8986835,-5.3447943,0.080020174,-3.5789547,-5.122392,16.421614,-15.843292,-4.0388036,0.39325625,-9.416431,-1.3396231,-3.2253306,-10.855764,-23.309793,17.705187,-5.8474994,10.366764,10.197111,-2.3921165,-4.9591193,4.939391,-11.534452,-0.056854084,-5.620899,-2.733083
33.81246,-64.83144,-8.84536,30.980976,3.4568443,-11.464271,-8.418847,7.968972,-17.244774,10.5202,-6.889222,13.360512,3.991358,3.231664,-14.499457,-2.9372168,0.8248385,-11.193007,-1.9173958,3.0274386,2.2795734,-0.519766,9.185728,-18.0151,-1.3040831,0.499474,-6.8325543,-5.306561,0.034202546,-3.1067832,-5.1082964,16.823011,-15.05186,-4.0127797,0.35882762,-7.3019123,-1.2171046,-3.2971356,-8.976898,-23.30983,17.705194,-5.847499,10.536097,11.243233,1.720756,-4.9249997,4.8741226,-10.232616,-0.0808566,-5.6309485,-3.2383687
33.661404,-63.80934,-8.333319,31.072062,4.3196836,-11.00596,-8.448547,7.9888244,-16.552372,10.608338,-6.9214373,14.437877,4.0031514,3.400108,-14.348045,-2.9388273,0.82713765,-9.432223,-1.9269198,3.0287426,2.5540872,-0.5028447,9.43139,-18.292896,-1.3029245,0.49754542,-5.821972,-5.2900915,0.018045992,-2.9725685,-5.122048,16.580091,-14.588891,-4.001892,0.32777464,-5.812728,-1.2043366,-3.319489,-8.7722225,-23.309753,17.705173,-5.847499,10.445241,10.3408165,-0.45912552,-4.989391,4.8975964,-11.584039,-0.057228096,-5.623886,-2.7469444
33.3221,-57.641846,-7.560522,30.988619,3.5658965,-11.383907,-8.605937,8.012248,-13.816079,10.6527,-6.8830767,14.38419,3.959592,3.5575027,-12.679254,-2.9371958,0.82513684,-10.166319,-1.8955219,3.0173213,0.9730849,-0.5231168,9.350443,-15.98713,-1.3032792,0.4984794,-6.017117,-5.331328,0.025547966,-3.2406507,-5.149005,16.37063,-13.506743,-4.0237975,0.35192883,-7.047925,-1.2346538,-3.3088343,-8.989136,-23.309824,17.705185,-5.8474994,10.486875,10.777013,0.42359638,-4.9507527,4.9004436,-10.040205,-0.08725333,-5.6270647,-3.4748926
33.103268,-49.4728,-7.0364084,31.067701,4.2843075,-10.979609,-8.512682,7.9568806,-14.850145,10.420118,-6.7298865,10.177911,3.9755056,3.4363058,-13.251115,-2.9367502,0.8207383,-11.631687,-1.8663124,2.967785,-1.4360425,-0.50718826,9.451064,-17.098486,-1.304088,0.5016894,-7.040122,-5.406087,0.10003745,-4.3094406,-5.1260056,16.410116,-15.302073,-4.044504,0.40987256,-9.892993,-1.341677,-3.2366462,-10.67379,-23.309496,17.705198,-5.8475,10.379469,9.808309,-2.7466848,-4.971847,4.993891,-11.34749,-0.13716112,-5.6029572,-4.7671766
32.218204,-58.331642,-4.3165607,31.108055,4.7556744,-10.782567,-8.495311,7.9827194,-15.723655,10.653373,-6.7797112,14.054613,3.9404554,2.9370692,-13.523591,-2.9405706,0.82370865,-9.937337,-1.8784045,2.98242,-0.7866583,-0.5238702,9.021597,-17.661594,-1.2998867,0.49989992,-4.890525,-5.29095,0.08413719,-3.3201272,-5.1069245,16.668242,-14.702291,-3.9720938,0.3525063,-5.8065104,-1.1541815,-3.2863731,-8.425058,-23.30988,17.705204,-5.8474994,10.475123,11.003175,0.12184,-4.922672,4.937352,-10.869867,-0.10510476,-5.607557,-3.9916244
33.726727,-60.462646,-8.482876,30.963564,3.4709542,-11.441147,-8.181388,7.8854623,-20.657219,10.119776,-6.82226,7.8152323,4.1612825,3.1733322,-19.941666,-2.935728,0.82293713,-12.640822,-1.8357458,2.988678,-2.1761332,-0.4520047,9.760039,-25.880852,-1.3030957,0.49912417,-5.9737897,-5.3119445,0.008191973,-2.9636927,-5.106341,16.00593,-21.873306,-4.0486393,0.39626247,-9.781239,-1.3307928,-3.2733514,-10.478999,-23.309887,17.705202,-5.8474994,10.163141,9.113622,-7.5720606,-5.093346,4.9989915,-15.093468,0.017016426,-5.6308055,-1.3229833
32.82577,-63.966476,-5.896838,30.968035,3.3086286,-11.539037,-8.201421,7.9154463,-20.579105,10.353239,-6.8889804,11.003575,4.0473204,2.6027968,-17.390728,-2.9396737,0.82616395,-10.988061,-1.8525988,3.0047927,-1.6165558,-0.5058028,9.011185,-22.170254,-1.3022673,0.49951544,-5.7635937,-5.3516808,0.050241545,-3.8319633,-5.1113963,16.430368,-17.432383,-3.990637,0.33659297,-5.853067,-1.1629174,-3.3146226,-8.556148,-23.309788,17.705246,-5.8474994,10.523516,11.140104,1.5545702,-5.0250688,4.8908668,-12.455263,-0.06856954,-5.6268334,-3.1598341
32.54506,-60.87827,-5.2204385,31.019773,3.7367074,-11.296761,-8.369706,7.9513693,-17.69974,10.501419,-6.8630433,12.583209,3.9307656,2.7707548,-13.2083845,-2.9404008,0.8262189,-10.3798065,-1.8806498,3.0069063,-0.19690537,-0.54118484,8.806807,-17.23421,-1.304333,0.50222987,-7.656021,-5.443692,0.1283436,-5.066439,-5.121895,16.84258,-13.839527,-3.9937673,0.35332,-6.3898067,-1.1866944,-3.2768903,-8.892778,-23.309267,17.705185,-5.8474994,10.643898,11.796273,4.367831,-4.9863987,4.9233975,-11.886222,-0.1977079,-5.587948,-6.1948967
32.49982,-62.134094,-5.0112767,30.930735,2.951762,-11.6969,-8.269585,7.9182186,-19.38073,10.285169,-6.830786,9.847521,3.9577076,2.6184702,-14.41614,-2.939701,0.82539636,-12.504211,-1.8321708,2.9874077,-2.9921818,-0.5354301,8.820482,-18.837051,-1.3061186,0.5033863,-8.527862,-5.515716,0.13596839,-5.8200274,-5.1244717,16.741896,-14.600546,-4.007483,0.35586706,-6.880345,-1.2049767,-3.2763295,-9.229202,-23.309069,17.70517,-5.8474994,10.659597,11.765158,4.969162,-4.997901,4.8906693,-11.515208,-0.17310834,-5.6012363,-5.4798403
32.818993,-57.95033,-6.127708,30.931812,2.9742837,-11.671748,-8.3351345,7.909584,-18.257818,10.174878,-6.7056527,7.7482104,3.9046562,2.843399,-12.241606,-2.9373448,0.82085145,-13.409044,-1.8225031,2.9626079,-3.371783,-0.5484844,8.774925,-15.72266,-1.3052118,0.50240433,-7.420617,-5.476282,0.12665987,-5.309109,-5.1256742,16.694504,-13.835201,-4.0423946,0.414131,-9.944101,-1.3240494,-3.211942,-10.928608,-23.30918,17.705198,-5.8474994,10.556534,11.109922,1.7588081,-5.0252624,4.9991345,-13.273317,-0.2518466,-5.576578,-7.1657515
32.843746,-57.675064,-6.1578465,31.002003,3.9012768,-11.223227,-8.437461,7.959057,-16.686914,10.344506,-6.7536435,10.0285015,3.960757,3.056503,-13.958115,-2.9365163,0.81988037,-13.012813,-1.830042,2.9617746,-2.9842343,-0.52001536,9.104851,-18.113657,-1.3029414,0.5023311,-6.8240075,-5.4057302,0.13470615,-4.465188,-5.1092787,16.682856,-14.77571,-4.0118213,0.3800006,-8.049569,-1.272226,-3.2369616,-10.034988,-23.309803,17.705227,-5.8474994,10.451876,10.946623,0.033833742,-4.906379,4.9127946,-9.832179,-0.0729861,-5.6137233,-3.245812
32.407726,-61.24209,-4.7942996,31.006992,3.6655357,-11.342637,-8.331029,7.9247913,-18.522541,10.465047,-6.7736387,11.946571,3.9832613,2.617113,-15.704092,-2.9386013,0.82139516,-12.09727,-1.8503525,2.9806561,-1.8910863,-0.5248983,8.861543,-19.473263,-1.3006842,0.4991298,-5.060547,-5.2960243,0.038523555,-3.2115011,-5.1066,16.4981,-17.030252,-4.000962,0.38086253,-7.5786486,-1.1963204,-3.2820387,-9.055229,-23.309711,17.705242,-5.8474994,10.493591,10.921926,-0.006815672,-5.0013275,4.959877,-12.969998,-0.15974846,-5.603013,-5.110843
33.458725,-54.798428,-7.9291844,31.001156,3.7569294,-11.284126,-8.319919,7.933088,-18.170315,10.267493,-6.8661456,9.112051,4.044569,3.130325,-15.898268,-2.9365697,0.82301724,-11.940266,-1.8520218,2.98596,-1.5942857,-0.49456748,9.36216,-20.88848,-1.3058846,0.50368434,-8.551931,-5.4683924,0.14252858,-5.0516577,-5.1059833,16.632631,-17.016346,-4.028764,0.3774196,-8.450489,-1.2980474,-3.2483552,-10.169069,-23.309546,17.705187,-5.8474994,10.369152,10.562735,-1.942166,-5.00176,4.9383016,-11.326005,-0.04967635,-5.616494,-2.838025
33.799442,-56.99729,-8.799021,30.910217,2.9587703,-11.70544,-8.142123,7.8827376,-21.103218,10.066504,-6.8779736,6.832902,4.178134,3.0164528,-20.628704,-2.9343638,0.8212184,-13.507153,-1.8087218,2.9819508,-3.7385428,-0.45891553,9.6001,-25.945156,-1.3033922,0.4993356,-6.1385746,-5.3735495,0.041458726,-3.6334205,-5.1076274,15.932522,-21.3552,-4.050658,0.38834572,-9.519999,-1.3563861,-3.2578473,-10.884468,-23.310045,17.705278,-5.8474994,10.205189,9.421697,-6.1901646,-5.1051354,4.975276,-14.40769,0.02318938,-5.631927,-1.2755527
33.372826,-52.822277,-7.724183,31.042698,4.2522006,-11.021851,-8.446606,7.9568043,-16.102774,10.358254,-6.766037,9.793908,4.045119,3.4723415,-15.625141,-2.9361145,0.8214709,-11.764787,-1.8482231,2.9667854,-2.241897,-0.48259923,9.643028,-20.126274,-1.303392,0.5002639,-5.8846455,-5.3606772,0.07848353,-3.713212,-5.1200566,16.125257,-16.965544,-4.037664,0.38877553,-9.012066,-1.3420758,-3.2448978,-10.715502,-23.309904,17.705204,-5.8475,10.245788,9.290257,-5.4417167,-4.9970083,4.9781523,-11.988713,-0.0256738,-5.6207585,-2.2198827
32.789974,-57.743614,-5.9875774,31.000277,3.7172773,-11.315076,-8.33741,7.935543,-18.106655,10.385869,-6.7867656,10.607912,4.0044208,2.792087,-15.834786,-2.9380953,0.8223163,-11.644671,-1.8476808,2.9764936,-2.2020087,-0.51242095,9.04054,-19.621529,-1.301027,0.49899077,-4.5371027,-5.312286,0.065249264,-3.3535194,-5.104364,16.41599,-16.524822,-4.0066867,0.37539172,-7.5794125,-1.2438552,-3.2593465,-9.677931,-23.309849,17.705212,-5.8475,10.4042,10.540963,-1.6623282,-5.0292068,4.985836,-13.470423,-0.11644603,-5.602617,-4.210625
32.81686,-55.044933,-6.098985,30.968178,3.4149618,-11.465789,-8.311107,7.9167204,-18.387117,10.301103,-6.783065,9.272964,4.024424,2.696888,-16.66949,-2.936159,0.81945866,-12.885274,-1.825305,2.969191,-3.177067,-0.5083165,9.045204,-20.13024,-1.3005567,0.49897516,-4.307229,-5.311688,0.053909868,-3.2248871,-5.102409,16.364586,-17.23739,-4.026632,0.39830565,-8.939928,-1.290194,-3.2460763,-10.253447,-23.310013,17.705275,-5.8475,10.404221,10.499026,-1.7766104,-5.057852,5.018943,-14.245637,-0.14313197,-5.596089,-4.9332004
32.82291,-61.803177,-5.869803,31.021984,3.7778516,-11.283517,-8.258995,7.915884,-19.448767,10.353838,-6.8146253,10.818197,4.023977,2.7001195,-16.295364,-2.9404292,0.8251774,-11.1571245,-1.8663311,2.9930918,-1.2326314,-0.50635964,9.097857,-20.897366,-1.2994916,0.4984005,-4.9446383,-5.2859416,0.048185155,-3.0816267,-5.104509,16.691116,-17.270054,-3.9833374,0.3518561,-6.256064,-1.1598055,-3.2970338,-8.434926,-23.309515,17.705158,-5.8474994,10.44698,10.9448,-0.48485065,-4.9824457,4.923044,-11.940069,-0.06339951,-5.6217937,-3.0538268
32.722866,-59.413963,-5.8057756,31.049555,4.0361795,-11.148374,-8.403699,7.9667816,-17.13447,10.593771,-6.856591,13.437992,3.9522624,2.7973542,-14.031385,-2.9385808,0.8234283,-10.719402,-1.884891,2.9968767,-0.31707883,-0.5356149,8.852809,-16.974718,-1.3025057,0.49937135,-5.4738026,-5.3461795,0.08290852,-3.8896384,-5.111633,16.6813,-13.755911,-3.9912524,0.34956655,-6.152095,-1.1985964,-3.27473,-9.111989,-23.309721,17.70522,-5.8475,10.578105,11.254493,2.6548,-4.995724,4.9342337,-12.141598,-0.17495583,-5.594855,-5.4954247
33.157898,-58.961784,-6.902231,30.952532,3.214201,-11.568951,-8.23224,7.9190807,-19.697903,10.328024,-6.92643,10.405499,4.1362343,2.937065,-19.50005,-2.9357808,0.82338095,-11.861474,-1.832427,2.9998307,-2.5170538,-0.4755751,9.440648,-24.442207,-1.3030936,0.49854678,-5.9366145,-5.3654847,0.01826343,-3.6279626,-5.127285,15.874768,-19.893415,-4.030664,0.3569162,-7.589873,-1.2689785,-3.3040934,-9.653411,-23.309868,17.705244,-5.8474994,10.31901,9.844273,-3.6573,-5.1194353,4.953195,-14.538349,-0.03546706,-5.624118,-2.5316055
33.569332,-66.33481,-7.9205713,31.077145,4.4629602,-10.958872,-8.283268,7.9571996,-19.261501,10.521518,-6.9564767,13.70599,4.1466074,2.9348593,-20.169209,-2.9355338,0.8224225,-12.194012,-1.8761417,3.010137,-0.12496543,-0.47197577,9.466098,-23.908218,-1.2982793,0.4943263,-3.2308292,-5.1609235,-0.030117705,-1.4226575,-5.100224,16.326916,-19.27325,-3.9913309,0.33170348,-5.8755217,-1.2040999,-3.3087947,-8.920247,-23.310173,17.705202,-5.847499,10.263914,9.96335,-4.5294023,-5.0458846,4.926521,-13.799595,0.042731166,-5.6330156,-0.74972105
33.09014,-70.38207,-6.369648,31.087679,4.6163225,-10.894239,-8.212969,7.9515786,-20.69271,10.555801,-6.9914145,14.632751,4.179779,2.7690306,-21.719166,-2.9382825,0.825245,-11.186299,-1.8719609,3.0165777,-0.3824165,-0.45820618,9.518835,-27.16036,-1.2984987,0.49569052,-4.391467,-5.1944494,-0.02062872,-1.9346337,-5.095873,16.21697,-21.209423,-3.9607544,0.2967772,-3.8284254,-1.1068225,-3.3581176,-7.620203,-23.31012,17.705217,-5.847499,10.265739,10.043066,-4.3674464,-5.011705,4.849425,-12.424293,0.122858256,-5.6558228,1.0819974
32.70667,-57.88341,-5.7087235,31.089514,4.680776,-10.823457,-8.498296,7.9789095,-15.719922,10.572184,-6.78667,13.056105,3.9799247,3.2175553,-14.254684,-2.939101,0.82284355,-10.78424,-1.8704996,2.979201,-0.94037294,-0.50675476,9.279666,-19.071472,-1.3026333,0.5021972,-6.85491,-5.362721,0.11691642,-4.063768,-5.1072206,16.589384,-15.82468,-3.9946258,0.3659849,-7.011161,-1.219759,-3.267944,-9.238079,-23.309853,17.705208,-5.8474994,10.394408,10.516306,-1.6762543,-4.914351,4.92446,-10.200711,-0.055190116,-5.6156855,-2.8631148
32.188637,-51.130394,-4.4460573,30.943272,3.1261854,-11.588676,-8.484549,7.9664598,-15.432405,10.482268,-6.8190665,11.148596,3.9248056,2.9213276,-12.711481,-2.938,0.82273316,-11.009929,-1.8274119,2.9774556,-3.4430633,-0.5395288,8.887474,-16.313164,-1.3046842,0.5020443,-6.690178,-5.4881363,0.11527519,-5.319148,-5.1435747,16.257442,-13.2009945,-4.027063,0.37216628,-7.7277594,-1.2678491,-3.2644846,-9.843606,-23.309736,17.705278,-5.8475,10.606444,11.190498,3.2039714,-5.039099,4.974549,-12.4749565,-0.2293506,-5.584842,-6.857627
31.914827,-61.704124,-3.3932161,30.88484,2.5228233,-11.910903,-8.401192,7.9639316,-17.232523,10.472872,-6.892126,12.397355,3.9048283,2.7153113,-12.530154,-2.9407332,0.8276443,-10.270636,-1.8284847,3.0088286,-2.8247514,-0.5542601,8.691808,-16.57837,-1.3030919,0.4988481,-6.172633,-5.4641447,0.059592158,-5.0248785,-5.1643963,16.25468,-12.678675,-4.0027404,0.3269529,-5.3887663,-1.1708375,-3.321202,-8.522076,-23.309341,17.70523,-5.847499,10.69674,11.807651,5.567171,-5.075738,4.926375,-13.5417,-0.23116943,-5.586597,-6.872963
32.825314,-60.5575,-5.9807014,30.893427,2.6017556,-11.871154,-8.262713,7.927314,-19.240534,10.308363,-6.924833,10.236912,4.0006785,2.812366,-15.354474,-2.939087,0.8274466,-10.950213,-1.8442676,3.0131958,-1.9784001,-0.52060175,9.03531,-19.695744,-1.3059813,0.5005906,-7.492128,-5.507639,0.088532746,-5.478489,-5.1432977,16.234245,-14.940595,-4.025178,0.34269673,-6.721149,-1.2537637,-3.293758,-9.636986,-23.30934,17.705236,-5.8474994,10.607231,11.04601,3.5766459,-5.1064935,4.9343066,-14.182605,-0.18252689,-5.5903893,-5.8826113
32.55223,-55.656666,-5.3048105,30.960855,3.2035203,-11.565712,-8.286739,7.909746,-18.755375,10.310454,-6.817864,9.647061,3.9935822,2.6583252,-15.270647,-2.9389927,0.82351756,-11.221111,-1.8422536,2.9882514,-2.1724494,-0.51896036,8.933515,-19.924355,-1.3017771,0.5012042,-6.2339597,-5.3791203,0.079562224,-4.044292,-5.110689,16.6078,-17.022835,-4.0105724,0.38111728,-7.883025,-1.210387,-3.280916,-9.013192,-23.309586,17.705221,-5.8475,10.490447,11.291175,0.32388663,-5.025776,4.9720206,-12.710307,-0.14556754,-5.6052933,-4.9900866
32.83488,-64.2264,-5.860961,30.967514,3.3636112,-11.5091305,-8.230253,7.923791,-20.020462,10.370497,-6.89134,11.325026,4.0867367,2.6663072,-18.65283,-2.9373276,0.8238391,-12.220062,-1.8326699,2.9950967,-2.6572118,-0.49432206,9.146255,-22.92464,-1.3010193,0.49761072,-4.552145,-5.305386,0.018213436,-3.1668415,-5.118167,16.207449,-18.246307,-4.003199,0.34283274,-6.3164206,-1.2001523,-3.3043463,-9.0230875,-23.309835,17.705196,-5.8474994,10.404718,10.549977,-1.2729294,-5.0916476,4.9427547,-14.5077305,-0.062571384,-5.616366,-3.0109975
32.78396,-57.57469,-5.930079,30.971283,3.3717484,-11.486737,-8.325227,7.9450316,-18.184874,10.416606,-6.89245,11.179554,4.0643506,2.8131618,-17.488087,-2.9359138,0.82200754,-12.474155,-1.8245388,2.9877017,-3.3556404,-0.5058224,9.131715,-21.102787,-1.3019826,0.4983366,-5.218887,-5.3698845,0.05199542,-3.8645544,-5.1333756,16.112898,-16.766512,-4.016963,0.3540637,-7.1328964,-1.2565556,-3.2804925,-9.701592,-23.30987,17.705257,-5.8474994,10.471032,10.680474,0.3040235,-5.055961,4.9337816,-13.0667515,-0.09001753,-5.6141653,-3.861591
32.811306,-53.945408,-6.151862,30.98456,3.5181434,-11.38802,-8.417483,7.9421563,-16.696295,10.415935,-6.7933435,10.471496,3.9858718,3.09583,-14.492253,-2.9360256,0.8205854,-13.208463,-1.8350098,2.9696963,-3.2302823,-0.52310866,9.111086,-18.109875,-1.3085209,0.504492,-9.0552435,-5.5445747,0.15486585,-6.0661316,-5.127914,16.360289,-14.861069,-4.0474844,0.4012726,-9.553871,-1.3515495,-3.2207596,-11.150826,-23.309456,17.705238,-5.8474994,10.549875,10.578814,1.838069,-5.019582,4.9667215,-12.405328,-0.21010125,-5.584928,-6.4210677
33.09644,-57.96573,-6.945658,30.959345,3.1096303,-11.612946,-8.387772,7.9602757,-17.200365,10.500848,-6.924188,12.269718,3.982922,3.0658665,-14.177274,-2.9370549,0.8255406,-10.554432,-1.8664553,3.0135524,-0.79323316,-0.53510904,8.946409,-17.39665,-1.307011,0.500879,-7.5004296,-5.498835,0.11213527,-5.490089,-5.1567626,16.182281,-13.7355585,-4.0353937,0.35940027,-7.621393,-1.305877,-3.253919,-10.45606,-23.3095,17.705238,-5.8474994,10.610389,11.0289345,3.490098,-5.0956078,4.955969,-14.000582,-0.22276013,-5.58029,-6.842226
31.941505,-56.739452,-3.5207279,31.103907,4.6056075,-10.830588,-8.603404,8.001918,-13.7787075,10.754148,-6.8062644,15.167568,3.9453392,3.169323,-12.960054,-2.9388633,0.8230876,-11.467955,-1.8510216,2.9799843,-2.5044513,-0.5354675,9.03473,-16.405123,-1.3045279,0.5023143,-7.417985,-5.4617543,0.1394407,-5.3738084,-5.1541195,16.372492,-13.395718,-4.011859,0.375194,-7.5884037,-1.2598159,-3.2414567,-9.978184,-23.30935,17.705158,-5.8474994,10.558816,10.898324,2.1279564,-5.027563,5.006426,-13.634289,-0.24249081,-5.5639877,-7.4126205
32.509235,-51.354153,-5.254408,31.078243,4.5120316,-10.876311,-8.551465,7.9806542,-14.325882,10.525169,-6.7691836,11.860493,3.9677608,3.2844021,-13.264548,-2.937872,0.8216055,-11.563578,-1.853425,2.9696727,-2.2788608,-0.51356924,9.334239,-17.421179,-1.3024889,0.5021036,-6.8453393,-5.3996186,0.12290166,-4.359146,-5.1219635,16.585995,-14.914836,-4.013392,0.38784575,-8.227151,-1.2655528,-3.2475855,-9.703152,-23.309595,17.70516,-5.8474994,10.397305,10.575685,-1.6733444,-4.9458976,4.9842834,-11.019406,-0.112896234,-5.5997252,-4.373373
32.51228,-55.603832,-5.2252645,31.099924,4.6023245,-10.840019,-8.590069,7.993429,-14.006398,10.664237,-6.7658143,13.999051,3.9280908,3.2019544,-12.540104,-2.9382107,0.8218858,-11.037393,-1.8806919,2.9804544,-0.41280246,-0.52736205,9.146893,-16.038029,-1.3018488,0.50061524,-6.0282726,-5.321142,0.07478775,-3.4662452,-5.1228633,16.682682,-14.229711,-4.006706,0.37874642,-7.6322107,-1.2174807,-3.2754889,-9.063129,-23.309547,17.70515,-5.8474994,10.466162,10.786731,-0.42262673,-4.9294853,4.9544544,-10.619697,-0.14339891,-5.604604,-4.7869587
33.072598,-61.715298,-6.6001425,30.989515,3.5351398,-11.400863,-8.250583,7.9002113,-19.67167,10.266472,-6.794975,9.703595,4.0533442,2.868886,-17.110664,-2.9383776,0.8239091,-12.405608,-1.8508334,2.987897,-1.6003124,-0.49279442,9.293092,-22.259623,-1.3032298,0.50081414,-6.8003793,-5.339533,0.038034394,-3.5160933,-5.107684,16.491444,-19.15035,-4.022966,0.3863654,-8.570542,-1.2323498,-3.291211,-9.284875,-23.309425,17.705164,-5.8474994,10.380501,10.382222,-2.5169697,-5.0138974,4.947114,-12.756897,-0.07031817,-5.6249003,-3.1281
33.598423,-58.72938,-8.225637,30.965555,3.2982352,-11.5239525,-8.236924,7.9047475,-19.68959,10.273113,-6.8866267,9.6549225,4.0808134,2.804289,-18.102163,-2.9349742,0.8205285,-13.991438,-1.8610901,2.9975605,-0.9514992,-0.49376303,9.262151,-22.087975,-1.3044082,0.5014803,-7.722293,-5.363241,0.05479846,-3.6310382,-5.0857234,16.825949,-18.506765,-4.032863,0.38841733,-9.016706,-1.2675291,-3.2808776,-9.614751,-23.309637,17.705235,-5.8474994,10.472118,10.964553,0.14629602,-4.9756966,4.9038706,-11.020689,-0.06689665,-5.6311955,-3.1497803
33.21522,-61.852158,-7.1120014,30.998991,3.6386929,-11.366985,-8.244231,7.939464,-19.68856,10.40418,-6.961147,11.551344,4.069012,2.7279696,-17.784225,-2.9359305,0.82307166,-11.9965925,-1.8538266,3.007685,-1.3518558,-0.50633544,9.042525,-21.335693,-1.3034137,0.4994674,-6.104391,-5.389332,0.08305006,-4.258668,-5.113424,16.418169,-16.537605,-4.0108786,0.34841672,-6.8621693,-1.2585098,-3.2674134,-9.905484,-23.309904,17.705275,-5.8474994,10.495703,10.967357,1.1876488,-5.0850515,4.9449964,-14.287722,-0.11345981,-5.5975547,-4.439018
32.825417,-50.296635,-6.175135,31.047087,4.253673,-11.010197,-8.457392,7.9438596,-15.791381,10.370303,-6.7619653,9.852917,4.04009,3.192531,-16.09567,-2.9335656,0.8172179,-13.261093,-1.8259245,2.9569492,-2.7816913,-0.48769203,9.464022,-20.539474,-1.3038878,0.5031262,-7.183111,-5.380906,0.08316762,-3.87397,-5.1077294,16.329092,-18.89439,-4.0587435,0.43217006,-10.991955,-1.3476478,-3.239189,-10.688944,-23.309649,17.705173,-5.8475,10.206013,9.657287,-6.9238453,-5.0612063,5.0635643,-14.0445,-0.11793795,-5.5955205,-4.312475
33.00907,-49.420494,-6.695513,31.080458,4.5392003,-10.846083,-8.542916,7.963611,-14.409623,10.445184,-6.7512417,10.692884,4.0178,3.7821703,-13.930496,-2.9363341,0.82226515,-10.375445,-1.8708526,2.9744277,-0.6498196,-0.47624922,9.856621,-20.1701,-1.3081827,0.5060944,-10.023004,-5.488553,0.115595296,-5.1165123,-5.128224,16.166704,-18.141953,-4.060341,0.41309568,-10.301979,-1.3387816,-3.269395,-10.287783,-23.309399,17.705133,-5.8474994,10.214481,9.076922,-6.910756,-4.9978237,4.997082,-11.548111,-0.075424224,-5.614579,-3.2107182
32.13121,-56.959095,-4.09302,31.016,3.812376,-11.256725,-8.403534,7.9534917,-17.083845,10.550418,-6.825871,12.572732,3.9708972,2.6723206,-14.940765,-2.9385467,0.8218648,-11.937862,-1.8368971,2.9760168,-3.0339637,-0.5288324,8.849182,-18.515284,-1.3033911,0.5016833,-6.3394313,-5.410269,0.10093431,-4.6358857,-5.11221,16.518078,-15.078906,-4.0022426,0.36661136,-6.9937286,-1.2079372,-3.2735643,-9.295844,-23.30973,17.70524,-5.8475,10.55601,11.178262,2.057683,-5.03381,4.96827,-12.9895935,-0.19360024,-5.5901384,-5.940558
32.306606,-55.355618,-4.682947,30.853672,2.2736855,-12.027313,-8.276503,7.9068336,-18.941837,10.115653,-6.788357,7.0126586,3.90542,2.5332818,-12.54798,-2.9387867,0.8235661,-12.227905,-1.8007,2.973696,-4.3840933,-0.54730546,8.67807,-16.810062,-1.3036616,0.50165486,-6.652541,-5.4724855,0.08946513,-5.0433683,-5.122626,16.70305,-13.994755,-4.0250416,0.37850773,-8.043861,-1.2254059,-3.2786448,-9.303862,-23.309307,17.705212,-5.8475,10.591977,11.81836,2.9473767,-5.060616,4.9753966,-13.009251,-0.2172628,-5.595671,-6.3389277
33.51508,-56.418297,-8.140433,31.021685,4.0304947,-11.149975,-8.501042,7.9719796,-15.5801935,10.458101,-6.8136263,11.524515,4.0054383,3.4668076,-14.395092,-2.9353642,0.8211658,-12.0171795,-1.8627738,2.984737,-0.7725518,-0.501634,9.418942,-18.589392,-1.3051356,0.50162363,-7.127425,-5.3667397,0.07455615,-3.8025098,-5.117102,16.454762,-15.978377,-4.0449,0.39558452,-9.475229,-1.3257493,-3.250835,-10.5030575,-23.30996,17.705215,-5.8474994,10.344739,10.124344,-3.0454664,-4.9924283,4.9744096,-11.909251,-0.08325263,-5.6145763,-3.3891664
32.955486,-49.313866,-6.617021,30.95635,3.432869,-11.429795,-8.420606,7.9321537,-16.433594,10.175246,-6.736576,7.1604214,3.9865856,3.0957963,-14.410679,-2.9344957,0.8171784,-14.1989355,-1.7996854,2.9456875,-4.4479685,-0.5083219,9.270976,-18.601751,-1.3038943,0.5031317,-7.574329,-5.4537835,0.1199291,-4.718036,-5.1099143,16.535423,-16.418528,-4.054232,0.41984457,-10.566713,-1.3521707,-3.227571,-10.860561,-23.309563,17.705236,-5.8475,10.340534,10.316761,-3.2389657,-4.9889565,4.9893556,-11.211935,-0.105326906,-5.6089234,-3.9622412
36.198166,-64.72389,-16.060787,30.642586,2.493254,-11.896968,-8.088446,7.6680655,-23.676334,9.201687,-6.9182982,-2.9405394,5.093781,5.7891746,-48.41249,-2.8785598,0.7375985,-64.32316,-1.2630417,2.714197,-28.723177,-0.23127443,11.74867,-65.452736,-1.3984941,0.6177072,-84.89621,-8.374343,1.5500399,-40.13765,-4.8473597,15.457412,-72.25863,-5.010958,1.7336555,-87.30163,-3.3622172,-2.0309942,-42.164272,-23.307535,17.704967,-5.847498,8.204464,2.9032578,-61.086937,-6.6454134,7.136439,-77.43899,-1.3351952,-4.9187527,-34.10807
31.604654,-62.015793,-2.609642,31.435179,10.750141,-7.6531057,-9.557126,8.155386,-0.05844021,11.188504,-7.0372715,20.946394,4.9977093,5.961501,-46.376774,-2.8781614,0.7200292,-73.901794,-1.1536963,2.5587983,-40.85822,-0.26093203,11.606048,-57.24981,-1.40042,0.63410586,-90.375656,-8.862755,2.1947832,-48.488697,-4.8965955,15.69287,-59.297295,-4.9254,1.7152973,-85.18859,-3.4952912,-1.6548437,-47.168446,-23.30913,17.704834,-5.8474984,8.274796,3.734002,-56.509373,-6.7650585,7.5803185,-88.96206,-1.7301481,-4.638185,-45.92501
33.107338,-62.85203,-7.230511,31.36462,10.994297,-7.5446606,-9.427334,8.022285,-2.92206,10.356233,-6.737216,9.473,5.32984,5.376067,-60.001423,-2.8442628,0.66417176,-107.17029,-0.74252355,2.2731223,-64.56149,-0.2596676,11.182608,-64.376175,-1.4110023,0.64855736,-101.76358,-9.498731,2.7174647,-57.748432,-4.8051767,15.80481,-72.27097,-5.2695875,2.2672868,-116.117226,-4.568163,-0.81992245,-65.578125,-23.308928,17.704988,-5.847498,7.615306,1.6607218,-73.093315,-7.3759155,8.590486,-116.06708,-2.4381216,-4.222578,-63.28529
32.036644,-55.499466,-4.0762086,31.429134,10.744068,-7.6816473,-9.732768,8.161647,2.008978,10.997944,-6.7033033,16.084106,5.2021985,5.286674,-55.398808,-2.8542259,0.6763941,-99.9715,-0.85279983,2.3226988,-60.350266,-0.31859505,10.656967,-53.51654,-1.3933862,0.62696207,-84.30014,-8.6471615,2.2320182,-46.998528,-4.89775,15.873453,-53.737755,-4.9658985,1.7886009,-89.82799,-3.829513,-1.3651028,-53.26686,-23.310364,17.705408,-5.8474975,8.793072,4.0137725,-42.005062,-6.376979,7.2806664,-75.55648,-1.6222432,-4.6701727,-43.294735
31.584766,-56.559563,-2.6009068,31.571812,12.282679,-6.8858404,-9.79083,8.224535,2.8003864,10.846536,-6.725558,14.4105015,5.013932,4.2571464,-51.16853,-2.8609786,0.68158203,-96.5746,-0.8244909,2.271112,-62.087463,-0.36665946,10.208573,-48.34974,-1.38975,0.62616056,-79.540726,-8.8324585,2.5011528,-49.92085,-4.959228,15.826761,-49.474274,-4.9137106,1.7622756,-87.03772,-3.944148,-1.1242497,-55.960003,-23.311039,17.705273,-5.847498,8.693163,3.7378287,-44.097523,-6.6267533,7.630192,-86.266556,-1.9825938,-4.4216547,-52.43657
32.271145,-59.63951,-4.855689,31.242516,9.145731,-8.519692,-9.279779,8.010127,-4.74384,10.588146,-6.7114434,12.186779,5.209661,5.275325,-56.241768,-2.8546,0.68548447,-93.77768,-0.9009679,2.3895395,-55.26253,-0.2968477,10.831484,-57.9881,-1.3897163,0.6180839,-80.81668,-8.377133,1.9321115,-43.308884,-4.9022837,15.3922415,-61.221115,-4.9813547,1.7886417,-90.349945,-3.7616143,-1.5047855,-51.4185,-23.308912,17.704954,-5.8474975,8.523013,3.7432933,-49.45934,-6.575997,7.29606,-79.65781,-1.5795716,-4.7292337,-41.5266
32.7686,-60.492798,-6.2116036,31.217268,9.594628,-8.2944975,-9.383084,7.994234,-3.6026468,10.204172,-6.609769,7.1266346,5.2606525,5.6785464,-57.710327,-2.8502188,0.6675399,-107.91564,-0.72447157,2.2578764,-67.88524,-0.26091233,11.149854,-64.45293,-1.4114583,0.65151656,-105.432434,-9.565166,2.666818,-58.647896,-4.8367558,15.741121,-67.67731,-5.189904,2.1155229,-108.74811,-4.3013897,-1.0342126,-61.54564,-23.310558,17.705256,-5.8474975,8.204705,2.74893,-57.398968,-6.827602,7.8353243,-93.0691,-1.9635297,-4.4830008,-51.154587
33.52909,-54.504467,-8.326645,31.313063,9.594849,-8.286653,-9.224036,8.063945,-5.274398,10.248187,-6.862746,7.2530475,4.977254,4.4682417,-49.514866,-2.8730278,0.7035168,-83.68409,-1.0183668,2.4221613,-50.580257,-0.33097246,10.598555,-53.86458,-1.3911977,0.6235359,-84.73836,-8.803283,2.2953928,-48.833694,-4.9462967,15.639158,-53.030785,-4.896102,1.6771607,-84.65568,-3.757658,-1.427995,-52.243687,-23.309406,17.705051,-5.8474994,8.806233,4.578334,-41.34042,-6.414614,7.1907835,-75.23103,-1.5697622,-4.666845,-42.376575
33.44159,-56.397076,-8.15681,31.247862,9.017437,-8.558794,-9.060314,7.996692,-7.697012,10.114669,-6.8388624,6.7252064,4.983674,5.8404016,-45.728252,-2.873529,0.7084096,-77.556816,-1.0627164,2.465162,-45.68281,-0.28475672,11.190127,-57.558067,-1.4101448,0.6551345,-101.12111,-9.5339,2.6858325,-57.813927,-4.868721,16.071762,-59.00792,-4.9772286,1.8493378,-91.12791,-3.7747588,-1.3696291,-52.13825,-23.30853,17.70472,-5.847498,8.543116,4.024143,-48.347927,-6.56524,7.4533625,-81.60306,-1.7364695,-4.571625,-45.69455
31.851048,-58.676826,-3.2367063,31.65665,12.66787,-6.646074,-9.582127,8.144983,0.12500477,10.659355,-6.7789416,12.73518,5.0223446,4.592078,-49.384037,-2.8633082,0.69934505,-84.53517,-0.96061695,2.3743286,-53.371273,-0.32698768,10.509716,-54.68493,-1.3982381,0.62926936,-87.67427,-9.088301,2.6148708,-53.22186,-4.944958,15.122854,-57.448647,-4.99766,1.8334882,-91.56236,-4.051549,-1.1542311,-57.21704,-23.309132,17.705263,-5.8474975,8.121257,2.2439942,-59.923336,-7.065713,8.075379,-101.754486,-2.2122962,-4.310969,-58.21025
34.093124,-57.451416,-10.031519,31.41059,10.904873,-7.6169243,-9.212003,8.019042,-5.580537,9.920371,-6.7611966,3.6774833,5.0725856,4.7280526,-51.819267,-2.8655136,0.6973694,-87.10894,-0.9630918,2.3675756,-51.895966,-0.2932887,10.79891,-60.91861,-1.4119864,0.6497296,-100.571365,-9.463464,2.8045626,-58.024258,-4.8661776,15.553991,-62.596886,-5.077494,1.9858677,-101.00512,-4.2278852,-1.0386534,-59.974445,-23.307487,17.704964,-5.847498,8.234548,2.7494383,-57.04733,-6.835516,7.9334826,-95.79485,-2.0077586,-4.3820324,-53.758842
34.373013,-57.73814,-10.890148,31.34546,9.982782,-8.049658,-8.976358,7.9393177,-9.642054,9.954371,-6.648316,3.60092,5.029547,3.9015064,-51.641193,-2.8614335,0.6952027,-91.34478,-0.8775428,2.3359675,-58.226772,-0.3633415,9.716231,-51.27157,-1.3877436,0.6168943,-77.00607,-8.630337,2.3157055,-47.248966,-4.94708,15.318408,-54.75743,-4.980814,1.8225847,-90.96917,-4.1326876,-1.1292369,-58.336384,-23.310606,17.705694,-5.8474965,8.599403,3.2337255,-46.615234,-6.661536,7.549921,-85.4542,-1.8564326,-4.5019846,-49.457127
31.198645,-57.254654,-1.4875937,31.616308,12.268352,-6.808112,-9.725273,8.194384,1.6533852,11.052815,-6.8844833,17.128443,5.1152987,5.662505,-50.91123,-2.8653703,0.6979431,-85.68462,-0.9815789,2.4069314,-50.797882,-0.28129476,11.282216,-58.183975,-1.4141849,0.65197957,-97.88104,-9.361506,2.6359897,-55.668797,-4.904406,15.490696,-59.015564,-5.0134554,1.8594888,-91.9326,-3.875677,-1.317079,-53.611694,-23.309315,17.70514,-5.847498,8.353453,2.6660523,-53.430695,-6.8213367,7.7569723,-91.31242,-1.9979002,-4.452199,-51.82617
31.396894,-60.650448,-1.9375868,31.489328,11.473729,-7.298399,-9.469226,8.078373,-2.1056862,10.691131,-6.7366524,13.290392,5.1604524,4.6696997,-55.325047,-2.8550322,0.68721944,-93.6074,-0.86580676,2.3513055,-56.525127,-0.29732186,10.907556,-59.38289,-1.3992776,0.62674713,-85.98189,-8.774832,2.2426283,-48.333984,-4.9114776,15.292325,-62.580254,-5.0324163,1.8775308,-93.97344,-3.942554,-1.3327187,-54.75809,-23.30887,17.705061,-5.8474975,8.143731,1.9770889,-60.1617,-6.925729,7.8651686,-96.21496,-1.9786584,-4.490675,-52.289944
33.180775,-61.959618,-7.006288,31.45153,11.4281435,-7.352585,-9.161664,8.01628,-7.274777,9.99148,-6.792743,5.3531284,5.324051,3.9687507,-63.480385,-2.842938,0.66487706,-108.01279,-0.6729021,2.206524,-69.33644,-0.30159333,10.182634,-64.869354,-1.41859,0.65534747,-101.91179,-9.72583,2.932289,-60.9021,-4.9254093,14.596431,-67.04525,-5.1403165,2.0484667,-103.67972,-4.4867744,-0.8640263,-64.26945,-23.309448,17.705233,-5.847497,8.262518,1.3363829,-54.89776,-6.901124,7.801351,-93.694496,-2.047065,-4.312533,-53.878098
30.617044,-61.25052,0.32547283,31.574282,12.0722,-6.942894,-9.637408,8.150882,0.9835844,10.880017,-6.7338104,16.993088,4.919221,5.43184,-44.752922,-2.8739607,0.71938956,-74.75297,-1.0674264,2.4747443,-44.98758,-0.28167945,11.251712,-56.418106,-1.4066741,0.63501847,-90.99942,-9.079779,2.414945,-51.70247,-4.919796,15.4382105,-58.98133,-4.952176,1.7806953,-87.50331,-3.7282906,-1.4389131,-50.897667,-23.310194,17.704964,-5.847497,8.172954,2.7492437,-58.916965,-6.8933706,7.8449163,-95.71354,-2.0110323,-4.444977,-52.706936
34.79763,-56.179466,-12.202283,31.146053,8.335234,-8.929511,-8.697571,7.8591423,-13.789996,9.297351,-6.678489,-4.40096,5.031419,4.259169,-50.979565,-2.859664,0.6913431,-89.37794,-0.8977979,2.3390913,-56.76865,-0.30834743,10.436335,-58.804382,-1.3990978,0.63368106,-92.05466,-9.2797165,2.622337,-55.26562,-4.867763,15.605673,-64.527626,-5.0866814,1.9791133,-100.25706,-4.205666,-1.0404458,-59.91768,-23.31011,17.705254,-5.847499,8.1151495,2.7332425,-60.13431,-6.942481,7.899697,-95.63299,-2.0222306,-4.3907685,-52.986244
30.532387,-59.78378,0.75379276,31.643528,13.383682,-6.290849,-9.784473,8.200741,3.0802898,11.06196,-6.866067,18.623726,5.078191,3.5325756,-54.808296,-2.8570635,0.69051504,-93.166336,-0.83221704,2.3093364,-60.340385,-0.3088804,10.475251,-57.736862,-1.3945749,0.6199907,-82.99443,-8.757943,2.3355384,-48.787865,-4.9267526,15.1422,-61.653946,-5.01007,1.8535386,-92.80969,-4.057991,-1.1459358,-57.01719,-23.311293,17.705246,-5.847498,7.9564366,2.216413,-64.102196,-7.184327,8.214014,-106.234634,-2.2566288,-4.2711616,-58.934
34.05142,-55.876167,-10.03428,31.046799,7.206916,-9.522284,-8.915421,7.9067445,-9.768248,10.006505,-6.733974,5.28199,5.141179,3.957981,-55.80295,-2.8540347,0.69059074,-91.83626,-0.945976,2.449698,-51.223618,-0.3271662,10.5091095,-53.56349,-1.3703076,0.5865351,-63.440617,-7.649719,1.4830714,-33.5028,-4.8344483,16.025423,-63.98491,-5.0372224,1.8839056,-94.9944,-3.8359385,-1.4670203,-51.884953,-23.309763,17.705307,-5.8474994,7.9963446,3.538651,-64.44353,-6.967516,7.9052076,-96.43712,-1.8929878,-4.586111,-48.85899
31.148466,-59.294846,-1.1263733,31.676382,13.112633,-6.423671,-9.765034,8.212558,1.9256821,10.899313,-6.7900643,15.07295,5.1383896,3.8568254,-56.071045,-2.8561194,0.68203145,-98.84623,-0.7702882,2.2361782,-64.977196,-0.3220291,10.376044,-56.32267,-1.4015255,0.63561785,-88.11859,-9.096806,2.5915513,-53.207867,-4.990667,14.899477,-54.25303,-4.95775,1.7572019,-87.82214,-4.0761995,-1.1354742,-57.803,-23.31001,17.705475,-5.8474965,8.6392,2.6138263,-45.142063,-6.651574,7.506647,-84.965065,-1.8774616,-4.452914,-49.90173
34.058804,-58.19889,-10.035256,31.29769,9.712664,-8.218025,-8.997915,7.9194922,-8.872612,9.617131,-6.5438347,-0.5580845,4.7942896,4.867999,-41.369213,-2.8778737,0.71975,-75.65969,-1.0356095,2.3999918,-49.72177,-0.333452,10.388163,-54.118546,-1.3984227,0.62736,-88.20598,-9.069322,2.5349195,-53.08616,-4.969621,15.1532,-55.751488,-4.9694214,1.7766495,-89.77223,-3.964552,-1.2117208,-56.04204,-23.310364,17.705416,-5.847498,8.409535,3.167667,-52.57971,-6.675253,7.587117,-86.607414,-1.828766,-4.4995937,-48.863834
30.378845,-59.173347,0.81539154,30.586292,0.8220444,-12.764448,-8.976682,8.128169,-8.233158,10.1745405,-6.8986907,8.960634,3.5177047,3.1301851,0.51324177,-2.938188,0.8255752,-12.548337,-1.6323748,2.9502418,-10.990171,-0.64775527,8.088834,-4.162896,-1.3092519,0.50773805,-10.96471,-6.007078,0.32286254,-11.23606,-5.281731,16.136284,-0.88182926,-4.081358,0.3434835,-7.532811,-1.3924843,-3.1831858,-11.701713,-23.308891,17.705292,-5.847498,10.767928,13.419104,8.944298,-5.2566967,5.1414456,-18.495356,-0.53034675,-5.4288344,-13.99976
31.110464,-55.281475,-1.0966821,30.877596,3.4280615,-11.42335,-8.727075,8.056813,-11.851645,10.359002,-6.921206,10.631266,3.855866,2.9588814,-10.501099,-2.9332573,0.81647587,-16.127922,-1.6746404,2.9178605,-11.027529,-0.5418079,8.952834,-15.6412525,-1.3095726,0.5086881,-11.614583,-5.843393,0.28978282,-9.678606,-5.1751842,16.260057,-10.95544,-4.071511,0.3792168,-9.171089,-1.4147085,-3.1603384,-12.255141,-23.30968,17.705221,-5.8474984,10.414617,11.135917,-0.06574988,-5.285213,5.1867185,-19.887772,-0.3673826,-5.459915,-10.273084
31.340216,-61.773346,-1.727231,30.795418,2.1868157,-12.090392,-8.596393,7.994765,-14.331264,10.315191,-6.7384424,10.226011,3.827414,2.5547633,-10.64394,-2.9365795,0.8193933,-15.1949625,-1.728895,2.944488,-8.265329,-0.56796515,8.658235,-14.324175,-1.2984778,0.49536464,-3.53398,-5.3562627,0.017331034,-3.7877107,-5.166934,16.474525,-10.82601,-4.026405,0.36111623,-7.48384,-1.2381927,-3.2541397,-9.6516695,-23.309986,17.70514,-5.847499,10.635834,12.161596,4.594116,-5.091669,5.036735,-15.42885,-0.27551097,-5.560922,-7.807134
31.955374,-50.594185,-3.718475,30.989155,4.043117,-11.123963,-8.60493,7.977067,-13.692889,10.417343,-6.736369,10.34841,3.9844575,3.1168935,-14.274416,-2.9327278,0.81481034,-15.612996,-1.7422642,2.9132247,-8.084432,-0.5106217,9.194356,-19.759476,-1.3070691,0.5075751,-9.599346,-5.560683,0.19963297,-6.3500905,-5.139666,16.259357,-17.238728,-4.0653715,0.43979406,-11.588828,-1.3923515,-3.161016,-11.742071,-23.310038,17.70516,-5.8474994,10.29728,10.599205,-4.017642,-5.068517,5.099819,-14.686026,-0.19298008,-5.5539637,-6.2410574
32.216366,-64.335526,-4.190998,30.839546,2.3776832,-12.003504,-8.417768,7.960754,-17.21721,10.275577,-6.7863464,9.997514,3.9183478,2.6646867,-13.266703,-2.9378045,0.82265127,-13.684092,-1.769604,2.9610171,-6.307209,-0.5462137,8.773613,-17.09891,-1.2993177,0.49559587,-3.6076674,-5.3496385,0.028426051,-3.6864803,-5.1633773,16.232979,-13.266068,-4.0093584,0.34035033,-6.3621435,-1.2182996,-3.2692885,-9.380961,-23.309786,17.705181,-5.847499,10.549502,11.479566,2.3834066,-5.0402336,4.940155,-13.318652,-0.14478472,-5.595035,-4.784184
32.329884,-55.78809,-4.6608706,30.974495,3.5640147,-11.364512,-8.551987,7.998172,-14.494422,10.49462,-6.8233843,12.106893,3.897065,3.1812534,-11.320548,-2.9398012,0.82532895,-10.342351,-1.8549314,2.9918277,-1.8085899,-0.5348207,9.17658,-15.095811,-1.3010514,0.49863362,-5.5025826,-5.3864717,0.061317354,-4.0297523,-5.140156,16.516867,-12.2302685,-4.0001993,0.34130013,-5.9069877,-1.1882141,-3.3090725,-8.521791,-23.309496,17.705172,-5.8474994,10.5069275,11.036665,1.058485,-4.9722757,4.9385343,-11.030432,-0.13300253,-5.6032844,-4.561578
32.47485,-56.107292,-5.1211424,30.978212,3.6787062,-11.306079,-8.657636,8.010916,-12.948279,10.469761,-6.7491713,11.746125,3.8573983,3.5914404,-9.298513,-2.9402678,0.8266284,-9.257277,-1.8533251,2.9895127,-1.1988554,-0.5317223,9.30919,-14.162427,-1.3017291,0.49940678,-5.6970496,-5.3770924,0.05156845,-3.8415546,-5.1632257,16.348394,-11.962723,-4.0226383,0.35967803,-7.262413,-1.2366438,-3.3034415,-9.020497,-23.309544,17.705164,-5.847499,10.44627,10.59593,-0.6653445,-4.961083,4.959469,-11.0379305,-0.12283169,-5.608193,-4.300537
33.55599,-53.429596,-8.375692,30.972702,3.4988766,-11.401464,-8.706461,8.029917,-11.980378,10.601702,-6.878555,13.366932,3.937537,3.8341997,-11.32256,-2.933782,0.82169825,-11.569605,-1.8718218,3.004207,0.08995676,-0.5256814,9.399771,-14.370099,-1.3056053,0.5004055,-7.4250298,-5.410559,0.06171327,-3.9917607,-5.159117,16.412304,-12.255292,-4.062825,0.37946165,-9.134083,-1.343938,-3.2707782,-10.309647,-23.309769,17.70519,-5.8474994,10.455229,10.614249,-0.1805799,-4.9838142,4.94386,-10.5452,-0.12600882,-5.611271,-4.379765
33.200024,-58.86241,-7.267123,30.9518,3.2890112,-11.509053,-8.694856,8.022472,-12.517727,10.551898,-6.7999797,13.1537485,3.8443575,3.7240348,-8.672676,-2.937353,0.8250902,-10.415406,-1.8833882,3.0083437,0.7511339,-0.54890347,9.189787,-12.069836,-1.3039668,0.49871778,-6.3612723,-5.3568487,0.023027197,-3.4419298,-5.164824,16.581427,-10.645489,-4.042666,0.3684488,-8.129992,-1.2702297,-3.2975624,-9.367873,-23.309494,17.705147,-5.847499,10.537231,11.02789,1.4680314,-4.942506,4.9261475,-10.249598,-0.16049448,-5.6120963,-4.944257
33.234047,-66.93321,-7.0965548,31.08613,4.726578,-10.807085,-8.94065,8.108527,-9.202886,10.99583,-6.820175,19.761911,3.8532727,4.083993,-8.928128,-2.9384506,0.8249244,-10.539734,-1.9433564,3.024362,3.7496958,-0.54221284,9.518293,-11.274184,-1.3005258,0.49653593,-5.3341618,-5.1860523,-0.020175606,-1.659061,-5.1481724,16.870756,-10.2806425,-3.9937947,0.33645052,-5.6647134,-1.1402732,-3.3364396,-7.6654587,-23.309776,17.705078,-5.8474984,10.4653225,10.995868,-0.03885293,-4.7817397,4.85116,-6.9661016,-0.04321076,-5.636764,-2.133818
32.595863,-68.28252,-5.237985,30.9949,3.6862986,-11.341762,-8.685842,8.048959,-13.185248,10.823999,-6.8765893,17.687109,3.8492615,3.2477057,-10.206861,-2.9401724,0.8269896,-10.093066,-1.9088231,3.029383,1.8462734,-0.5589532,8.957066,-12.846241,-1.2995522,0.49548742,-4.3221474,-5.222107,-0.026496574,-2.1490223,-5.146659,16.864561,-10.449309,-3.9767647,0.31152743,-4.2133455,-1.0825503,-3.3575149,-7.077969,-23.309671,17.705126,-5.8474984,10.652208,12.009371,4.639941,-4.8869123,4.851879,-9.32242,-0.1287843,-5.621896,-4.1631093
33.40458,-60.99008,-7.657683,31.105701,4.72509,-10.807027,-8.443784,7.9924603,-16.497574,10.648008,-6.929015,14.705345,4.026736,3.1311545,-15.725807,-2.9372244,0.82348573,-10.7295885,-1.9137546,3.0134115,1.5854259,-0.50180715,9.329152,-19.173038,-1.3006405,0.49775687,-5.083717,-5.2387056,0.038581654,-2.4238987,-5.0932426,16.836584,-15.546048,-3.9835546,0.33542696,-5.660279,-1.1812248,-3.300673,-8.512879,-23.30999,17.705175,-5.8474994,10.399239,10.787345,-1.2314861,-4.9455442,4.9058228,-10.82576,-0.023517206,-5.624771,-2.1349866
33.44086,-59.6491,-7.862895,31.002247,3.585956,-11.363226,-8.495526,7.9891624,-15.556767,10.547465,-6.9003673,13.208511,3.9340045,3.1622121,-12.572826,-2.9360852,0.82291245,-11.65285,-1.900723,3.0140269,1.1248517,-0.5359424,9.08108,-14.956567,-1.3035198,0.49811867,-6.2324934,-5.34142,0.037584037,-3.4455948,-5.124366,16.876413,-12.18639,-4.0224557,0.35194603,-7.114453,-1.2433232,-3.2915528,-9.2650385,-23.309511,17.705175,-5.847499,10.588966,11.254223,3.0123982,-4.9871426,4.9132395,-11.183374,-0.16669841,-5.6052623,-5.1734705
32.166767,-55.05652,-4.298793,30.971088,3.4424329,-11.434382,-8.571738,7.9864845,-14.270336,10.490701,-6.7695293,11.827459,3.8552208,3.1250033,-10.064659,-2.9404776,0.82581127,-9.43878,-1.850172,2.989719,-1.4224176,-0.5472224,8.915905,-14.36354,-1.3015263,0.5005993,-5.640694,-5.380142,0.07116072,-4.0272326,-5.1480436,16.565779,-12.392509,-4.0112505,0.36580083,-7.1281567,-1.1924897,-3.300174,-8.621435,-23.30955,17.705187,-5.8474994,10.550248,11.475151,1.7756934,-4.976928,4.9653378,-11.329493,-0.18233654,-5.6007686,-5.6630926
32.339596,-55.9244,-4.7149477,31.008432,3.9908445,-11.168777,-8.65591,8.017595,-13.117482,10.597986,-6.7943234,13.29142,3.9321768,3.3953102,-12.433638,-2.9385006,0.8231188,-10.8832855,-1.8434231,2.981669,-1.8102221,-0.5179317,9.277731,-17.18549,-1.3030204,0.5025003,-7.0283885,-5.3992176,0.09701298,-4.228344,-5.1369696,16.444963,-14.017973,-4.013548,0.36028576,-7.1572104,-1.214627,-3.297381,-8.872995,-23.309858,17.705227,-5.8474994,10.454011,10.913801,-0.16300249,-4.922679,4.9182277,-9.682583,-0.07740924,-5.6200185,-3.3213897
33.355965,-60.254967,-7.6795106,31.068714,4.398828,-10.964704,-8.729002,8.037285,-12.16061,10.773141,-6.8072004,16.155151,3.872852,3.6123114,-10.048461,-2.9370952,0.82257277,-11.016872,-1.9331926,3.012422,3.020815,-0.54628396,9.19578,-12.590889,-1.3017695,0.4992585,-6.110319,-5.2341413,0.034934774,-2.249374,-5.116259,17.15338,-11.984657,-4.004794,0.37674403,-7.5423284,-1.193382,-3.2881057,-8.454002,-23.309761,17.705114,-5.847499,10.499556,11.537675,0.67435217,-4.809276,4.89687,-7.74879,-0.09949578,-5.6247745,-3.5951824
31.536116,-58.887054,-2.3182697,31.093063,4.5570006,-10.872881,-8.543053,7.9886336,-14.949668,10.746868,-6.804337,15.44961,3.920586,2.842207,-12.876389,-2.9404135,0.8240718,-10.237861,-1.8624729,2.987268,-1.4440771,-0.5359654,8.865412,-17.548933,-1.3019629,0.5026023,-6.7040386,-5.357835,0.09512789,-4.077275,-5.1211247,16.755795,-14.937935,-3.9791749,0.36193028,-6.1713834,-1.1230751,-3.3007445,-7.895804,-23.309544,17.705126,-5.8474994,10.533636,11.680317,1.4577694,-4.967248,4.9698052,-12.092306,-0.18271737,-5.591185,-5.7731857
32.52517,-56.86702,-5.147828,31.17115,5.4259925,-10.431254,-8.574463,8.007041,-14.347629,10.699331,-6.787963,14.545816,3.9987588,3.2985818,-14.705395,-2.9388916,0.82217896,-10.580535,-1.8853071,2.976668,-0.45583677,-0.4956761,9.4565115,-19.189133,-1.3012536,0.50108325,-6.047298,-5.30805,0.097788975,-3.4561267,-5.1049423,16.578928,-15.855954,-3.9852102,0.3554916,-6.391719,-1.1949621,-3.2807443,-8.839132,-23.30984,17.705175,-5.8474994,10.335938,10.13473,-3.172715,-4.9191,4.94054,-10.5385,-0.03906616,-5.6154776,-2.5123568
33.82352,-60.966965,-8.989426,30.971685,3.4611993,-11.440602,-8.65908,8.0207615,-13.22683,10.573497,-6.8523393,13.786075,3.910525,3.7845244,-10.754771,-2.9359624,0.8242346,-11.217358,-1.9091369,3.0216181,2.226614,-0.53274167,9.370675,-13.752094,-1.3047678,0.5000179,-7.370398,-5.340057,0.029406592,-3.2807128,-5.1413493,16.763535,-12.163166,-4.0395436,0.37021646,-8.2241745,-1.2468886,-3.3078687,-9.050411,-23.309702,17.705158,-5.847499,10.501856,11.119773,0.86738825,-4.8905716,4.8745995,-8.476177,-0.07572928,-5.637353,-2.9534495
32.266884,-54.52322,-4.5558014,31.061928,4.5390434,-10.877278,-8.772736,8.027324,-11.272795,10.697336,-6.688103,14.351613,3.880947,3.7014718,-10.205505,-2.939123,0.82255566,-10.667343,-1.8689463,2.9733841,-0.93596745,-0.5292081,9.397741,-14.696404,-1.3022871,0.5026053,-6.93771,-5.3478947,0.0917299,-3.6886604,-5.1361246,16.545864,-13.796473,-4.0113735,0.39635155,-8.275506,-1.2212598,-3.2734342,-8.929303,-23.309742,17.705133,-5.8474994,10.380114,10.670015,-2.465192,-4.8375096,4.955235,-8.733362,-0.092914395,-5.6146226,-3.634845
33.74384,-57.29323,-8.6536045,31.155966,5.1984525,-10.536075,-8.6552,8.031364,-12.9191,10.77948,-6.8768163,15.841191,4.0409703,3.9094784,-14.658723,-2.9354687,0.8221141,-11.2421255,-1.9153644,3.0010965,1.2730255,-0.48652533,9.824299,-17.876118,-1.304019,0.49873698,-6.6465945,-5.325229,0.057497405,-3.355817,-5.1347327,16.345259,-14.4958515,-4.0264244,0.35470372,-7.484889,-1.311594,-3.2704194,-10.165315,-23.309828,17.705154,-5.847499,10.3348255,9.340807,-3.0941908,-4.954575,4.9234004,-10.629448,-0.035955466,-5.6181602,-2.4269006
33.536304,-59.61326,-8.018074,31.164072,5.2992177,-10.492703,-8.649695,8.03256,-13.205608,10.832909,-6.889989,16.789204,4.0356245,3.8105214,-14.826389,-2.9351492,0.8217038,-11.158582,-1.9187251,3.004647,1.7780309,-0.4876867,9.740661,-18.420101,-1.3048844,0.50011045,-7.3205085,-5.322844,0.0539776,-3.3555527,-5.124669,16.441736,-15.257319,-4.0234256,0.3569367,-7.407119,-1.2797104,-3.2840796,-9.736063,-23.309841,17.70514,-5.847499,10.323655,9.537823,-3.4828188,-4.968595,4.931763,-11.197221,-0.051946074,-5.614817,-2.6456583
32.839977,-60.949883,-5.903373,31.169779,5.4753275,-10.40315,-8.744156,8.044977,-11.847258,10.788024,-6.7450194,16.35329,3.9359815,3.803371,-11.822344,-2.9402816,0.8248627,-10.098441,-1.9226857,2.9928172,1.7438221,-0.50463563,9.770335,-15.854767,-1.2995079,0.49874926,-5.6690135,-5.229116,0.03295158,-2.3774517,-5.125621,16.702972,-14.256108,-3.9805615,0.34938097,-5.8787313,-1.1385771,-3.322058,-7.7882175,-23.309504,17.705044,-5.847499,10.300474,10.009993,-4.2487864,-4.806206,4.8867927,-7.621079,0.018669873,-5.639338,-0.9467454
33.33197,-63.679863,-7.4377017,31.05442,4.399969,-10.975253,-8.879307,8.080453,-10.030149,10.837096,-6.7733955,17.363194,3.8894825,4.173953,-9.777907,-2.9381998,0.8251044,-10.158155,-1.9200945,3.0124667,2.516405,-0.5283798,9.6413355,-13.088921,-1.3010085,0.49828178,-5.9696164,-5.242074,0.008976087,-2.2901263,-5.160373,16.503336,-12.100688,-4.0057554,0.35003585,-6.4969974,-1.1653385,-3.3328583,-7.9493876,-23.309835,17.7051,-5.8474984,10.386876,10.602341,-1.991067,-4.767758,4.825912,-5.7693844,0.032361522,-5.659779,-0.44772148
32.036625,-71.28757,-3.3741198,31.219826,6.087679,-10.119762,-8.966178,8.125978,-9.115784,11.211109,-6.79625,22.78795,3.9734097,4.013757,-13.362355,-2.9397116,0.8250011,-10.542051,-1.916361,3.0064316,1.9899487,-0.49784535,9.848097,-17.958956,-1.3007599,0.49916273,-6.20816,-5.1723495,-0.016167104,-1.775418,-5.1491866,16.344131,-15.553426,-3.9696136,0.32423896,-4.655608,-1.0589354,-3.369881,-6.7025313,-23.309778,17.70503,-5.8474984,10.267271,10.066318,-5.0542555,-4.8211403,4.8713827,-8.929964,0.04491712,-5.6456294,-0.2828684
33.000294,-46.831146,-6.814333,31.06255,4.4122343,-10.924946,-8.562521,7.993146,-13.928662,10.513856,-6.855171,11.261829,4.051643,3.5010633,-15.464947,-2.93389,0.8187756,-12.429334,-1.8403249,2.9699376,-2.7077777,-0.48892993,9.554272,-19.631725,-1.3070356,0.50484884,-8.722223,-5.501351,0.16125329,-5.3913827,-5.1174297,16.296036,-15.996891,-4.0521417,0.39874414,-9.742477,-1.3729867,-3.2238693,-11.068142,-23.309963,17.70526,-5.8475,10.320205,9.959798,-3.3236682,-5.042941,5.020295,-12.687401,-0.10686116,-5.594664,-4.2890706
33.084072,-65.22664,-6.5506988,31.235674,6.1562567,-10.065133,-8.953063,8.119838,-8.871871,11.148822,-6.8441243,21.327724,3.9848905,4.181051,-12.938562,-2.9370975,0.8217993,-12.137134,-1.9383523,3.0054789,2.5168042,-0.5006412,9.910093,-15.534961,-1.3031408,0.49956605,-7.1053824,-5.2479587,0.042585447,-2.6846557,-5.1291356,16.710384,-12.979806,-3.9959729,0.3449843,-6.270798,-1.192237,-3.2993045,-8.665585,-23.309843,17.70509,-5.8474984,10.33428,9.897453,-3.0646553,-4.847199,4.910055,-9.20784,-0.026340745,-5.61955,-2.008607
33.09068,-66.073166,-6.5291195,31.217024,5.957925,-10.172651,-8.867096,8.103151,-10.234095,11.060747,-6.8531485,20.333128,4.0069265,4.0757885,-13.79866,-2.9380398,0.8235289,-11.311185,-1.9337616,3.0085816,2.3202171,-0.49252954,9.927214,-17.0272,-1.3020109,0.49866658,-6.4928946,-5.2365036,0.03244637,-2.5347364,-5.131817,16.556953,-13.861493,-3.985336,0.327532,-5.377464,-1.1620104,-3.3193953,-8.221661,-23.30987,17.705097,-5.8474984,10.312159,9.815568,-3.5067608,-4.8490787,4.8777146,-8.8580265,0.028806731,-5.6347423,-0.76774836
32.364334,-59.901463,-4.6594734,31.140566,5.0736074,-10.614874,-8.671128,8.020071,-13.001366,10.759864,-6.734501,15.71962,3.919329,3.440481,-11.949481,-2.9405699,0.8248182,-9.485524,-1.8959036,2.9873087,0.57450104,-0.518988,9.325152,-16.584885,-1.2992862,0.4993831,-5.192193,-5.2419634,0.049977988,-2.5817604,-5.1355157,16.607327,-14.551681,-3.9795814,0.35256514,-6.033063,-1.141803,-3.3105254,-7.9059944,-23.309616,17.705101,-5.847499,10.406097,10.675029,-1.7289654,-4.8395486,4.8930955,-8.509662,-0.03594678,-5.631727,-2.342848
32.42538,-47.761707,-5.1801877,31.072786,4.4656944,-10.894189,-8.624757,7.982001,-13.095398,10.507485,-6.68092,11.114315,3.905696,3.374345,-11.272784,-2.9379702,0.8205958,-11.076251,-1.8551614,2.9576094,-1.963388,-0.5257972,9.240761,-15.52144,-1.3022792,0.5028909,-6.661254,-5.382761,0.1276915,-4.0984926,-5.1238236,16.622343,-14.2943735,-4.0233397,0.41201815,-9.333116,-1.2874627,-3.2352087,-9.884745,-23.3096,17.705175,-5.8475,10.403787,10.624247,-1.9428971,-4.8883033,4.9879017,-9.651502,-0.13221912,-5.6034293,-4.732508
32.529675,-57.43888,-5.2236705,31.121986,5.0815916,-10.600514,-8.917381,8.084579,-9.102162,10.955148,-6.807613,18.06272,3.9621081,3.9590003,-12.513647,-2.9345787,0.81931365,-12.679499,-1.8750876,2.9858387,-0.021871567,-0.51071787,9.6353,-16.049265,-1.3061197,0.5038531,-8.67924,-5.364589,0.0716034,-3.7876115,-5.142489,16.462612,-14.596534,-4.042825,0.39620024,-9.178581,-1.263677,-3.2805743,-9.440684,-23.309757,17.705122,-5.847499,10.322757,10.2644615,-3.8088808,-4.9407625,4.990574,-11.111621,-0.117924094,-5.6045394,-4.125473
33.195847,-59.308846,-6.9252987,31.074743,4.5149035,-10.904864,-8.419627,7.993596,-16.654835,10.600689,-6.985603,14.101766,4.149103,3.5508943,-18.638798,-2.9368508,0.8270363,-8.806796,-1.8786477,3.0173988,-0.0001654625,-0.44819438,9.967247,-24.87011,-1.3038838,0.49945822,-6.679723,-5.3602514,0.027853638,-3.5901108,-5.1393704,15.72691,-19.351072,-4.009624,0.3095233,-5.236949,-1.2112887,-3.351551,-8.572119,-23.309998,17.705158,-5.8474994,10.18512,9.095866,-6.4703856,-5.0756955,4.9043164,-12.728438,0.0853837,-5.644515,0.28711462
32.65496,-68.08544,-5.206126,31.13158,5.1013656,-10.623958,-8.535971,8.014322,-15.591576,10.787366,-6.8848124,17.211071,4.067256,3.4842355,-16.805403,-2.9400234,0.8274082,-9.335726,-1.9022827,3.0165462,1.4011183,-0.47198567,9.7444315,-23.10275,-1.30254,0.50015485,-6.9438877,-5.265637,0.008941263,-2.754739,-5.124674,16.211512,-18.954636,-3.979463,0.3192376,-4.8633466,-1.1054431,-3.3680887,-7.322609,-23.3098,17.705116,-5.847499,10.25988,9.85258,-5.095997,-4.9414773,4.869276,-10.833053,0.06754057,-5.6503067,0.09209919
32.190018,-59.31413,-4.1070805,31.109575,4.9203186,-10.693411,-8.518623,8.0062275,-15.314273,10.735242,-6.911984,15.541348,4.1078887,3.219078,-18.38726,-2.935618,0.8216336,-11.861328,-1.8430138,2.9885933,-2.2133996,-0.47381744,9.573235,-23.813637,-1.3046929,0.502397,-7.579006,-5.3705544,0.06623066,-3.925939,-5.1201286,16.073654,-19.287226,-4.0110116,0.35582548,-7.007154,-1.219089,-3.304329,-8.972203,-23.309946,17.705175,-5.8474994,10.260622,9.976169,-4.8758893,-5.06184,4.982187,-14.185507,-0.039964274,-5.6103816,-2.695105
32.686863,-55.444733,-5.657567,31.147095,5.2728386,-10.501025,-8.685314,8.041077,-12.49765,10.767366,-6.8369007,15.3792925,4.030223,3.6141405,-14.991366,-2.9370217,0.8215007,-11.67848,-1.8814087,2.984099,-0.7155242,-0.4905398,9.6863165,-19.052588,-1.3037378,0.5018516,-7.224927,-5.3550696,0.10116437,-3.842022,-5.1157107,16.468393,-15.493247,-4.0065246,0.36247563,-7.2371407,-1.2423077,-3.27119,-9.328983,-23.309902,17.705181,-5.8474994,10.314398,10.055006,-3.5011234,-4.9409595,4.964155,-11.132234,-0.043878444,-5.611558,-2.7518492
32.472923,-60.139015,-4.9040194,31.138132,5.215372,-10.546612,-8.573939,8.01012,-14.530431,10.704134,-6.809757,15.19412,3.979542,3.3605483,-13.915869,-2.9400854,0.8246896,-9.897511,-1.8960699,2.9927027,0.3000803,-0.4993177,9.518962,-18.862808,-1.300745,0.5007364,-6.163703,-5.28745,0.06996383,-3.1450253,-5.1044083,16.667053,-15.955799,-3.9733338,0.34732756,-5.627516,-1.1367729,-3.3116643,-7.9193573,-23.309813,17.705116,-5.847499,10.315753,10.4267435,-3.5667539,-4.894046,4.927916,-10.128044,-0.011999726,-5.622874,-1.8180277
32.531506,-57.815327,-5.0462747,31.18901,5.666159,-10.288789,-8.732435,8.050432,-11.801511,10.84125,-6.84766,16.706127,4.083275,3.8739076,-16.227158,-2.935974,0.8220276,-11.783414,-1.8752546,2.9864461,-0.6260524,-0.4654748,10.025952,-21.44479,-1.3060668,0.5034253,-8.82969,-5.382302,0.07390084,-4.055671,-5.136419,16.14724,-17.953386,-4.028563,0.36921373,-8.008158,-1.2518966,-3.2989078,-9.260981,-23.309578,17.70509,-5.847499,10.184657,9.21145,-7.0024657,-5.0093637,4.990449,-12.783593,-0.025611341,-5.614016,-2.2605476
32.16906,-70.80638,-3.7324505,31.193897,5.8301697,-10.250975,-8.829168,8.096146,-11.198501,11.108288,-6.8624935,21.555447,4.043447,3.8787627,-15.731655,-2.938575,0.8251857,-10.537737,-1.9050386,3.0118425,1.5958118,-0.47716695,9.935329,-21.233744,-1.3029065,0.50050825,-7.321614,-5.2282224,-0.011672899,-2.3269973,-5.1411724,16.16466,-17.914864,-3.981631,0.32252148,-4.918118,-1.0806284,-3.3785894,-6.925744,-23.309792,17.70505,-5.8474984,10.209208,9.742088,-6.429136,-4.904144,4.8849487,-10.5820265,0.06014304,-5.645939,0.03737259
32.83449,-67.74437,-5.685082,31.148748,5.2231255,-10.55504,-8.406844,7.98362,-17.462317,10.6967945,-6.915292,16.10402,4.1196346,3.42565,-18.39317,-2.9388583,0.82780933,-8.575444,-1.9060504,3.020183,1.7534747,-0.45023423,9.881367,-25.47266,-1.3035163,0.5003439,-7.013341,-5.2704473,-0.0066603124,-2.736659,-5.118181,16.028809,-21.042782,-3.9904995,0.32227427,-5.190546,-1.1305425,-3.374096,-7.580938,-23.309769,17.705074,-5.847499,10.148196,9.165419,-7.9582686,-5.039209,4.9155774,-13.346981,0.069956645,-5.643023,0.20036507
32.43949,-68.16903,-4.645006,31.167027,5.486052,-10.425934,-8.809749,8.077067,-11.326614,11.030236,-6.8069043,20.206055,3.9403605,3.823976,-12.21699,-2.9405806,0.8264694,-9.270191,-1.9210638,3.011481,2.101931,-0.5104878,9.604923,-16.7844,-1.2998608,0.49829343,-5.5028896,-5.2007627,0.004985258,-2.1076667,-5.1457515,16.468956,-14.319354,-3.9670606,0.32251394,-4.4837837,-1.0867443,-3.3520877,-7.1205845,-23.309843,17.70506,-5.8474984,10.359168,10.400523,-2.6221266,-4.8257675,4.858984,-8.440746,0.017199352,-5.640386,-0.9597864
32.258873,-55.125042,-4.442773,31.15802,5.4583387,-10.398868,-8.830018,8.056827,-10.342071,10.809139,-6.7230363,15.847317,3.918561,3.7191372,-11.377771,-2.9382868,0.82065207,-11.877919,-1.8914667,2.9727724,-0.039720297,-0.51570827,9.5997715,-15.316797,-1.3033344,0.5041177,-8.08556,-5.344297,0.111615166,-3.7755828,-5.107893,16.91028,-14.135761,-4.0031104,0.3937243,-8.085852,-1.194149,-3.2727525,-8.632416,-23.309582,17.705097,-5.8474994,10.323329,10.580054,-3.736417,-4.8425584,4.979807,-9.238947,-0.08993605,-5.607006,-3.534967
31.864063,-56.068428,-3.346582,31.13531,5.2702584,-10.503539,-8.881085,8.071492,-9.702801,10.901642,-6.7228427,16.990795,3.937651,3.7869399,-12.109194,-2.9376101,0.8205854,-11.582187,-1.8655936,2.9702182,-1.1641662,-0.5133091,9.547608,-16.731659,-1.3044345,0.5043944,-8.058755,-5.360799,0.10244144,-3.9181037,-5.133737,16.416468,-14.944151,-4.013146,0.3909482,-8.235085,-1.2155424,-3.2765381,-8.891549,-23.309832,17.705149,-5.8474994,10.32577,10.405299,-3.7818038,-4.8776817,4.9802327,-10.226976,-0.09322716,-5.6082873,-3.6930282
32.800884,-55.053326,-5.9249725,31.129128,5.1672187,-10.5522175,-8.782097,8.067582,-10.926401,10.807265,-6.859511,15.96149,4.0657415,4.011674,-15.38571,-2.935944,0.82216513,-11.429383,-1.8713582,2.987925,-0.8390024,-0.4714769,10.047245,-19.957163,-1.3055096,0.50258666,-8.138647,-5.400733,0.08550712,-4.2072177,-5.1427374,16.033321,-16.214518,-4.030025,0.35758543,-7.57078,-1.2668685,-3.2948818,-9.469732,-23.309895,17.705164,-5.8474994,10.215193,9.282848,-5.981775,-4.9839616,4.9633856,-11.40034,-0.0015522242,-5.62206,-1.695374
31.624575,-64.77811,-2.3625898,31.17507,5.5931616,-10.365886,-8.6347065,8.043655,-13.962553,10.950106,-6.891715,18.747066,4.0770936,3.2542083,-17.661947,-2.937821,0.8228365,-11.036608,-1.8646541,2.9947457,-0.8357587,-0.4777482,9.519086,-23.94735,-1.3050199,0.50451016,-8.508463,-5.339002,0.07531297,-3.7683117,-5.110958,16.305882,-19.429714,-3.9839659,0.34231162,-5.8201604,-1.1194105,-3.3326683,-7.6755505,-23.309944,17.705145,-5.847499,10.269017,10.41529,-4.754716,-5.003738,4.959935,-13.379151,-0.028765135,-5.6150064,-2.2816968
32.946613,-58.22326,-6.210387,31.082832,4.5875883,-10.8408,-8.451824,7.965896,-16.184095,10.544197,-6.8849683,13.280334,4.1333976,3.5918686,-18.31993,-2.93496,0.8234222,-11.249244,-1.8634273,2.9969003,-0.4800372,-0.4486195,10.02452,-25.103111,-1.307621,0.503772,-9.701949,-5.41389,0.03264773,-4.0842004,-5.1309967,15.908548,-21.824581,-4.0516114,0.38093066,-8.892738,-1.2727482,-3.3288958,-9.248196,-23.309336,17.705067,-5.847499,10.113,8.834096,-9.177574,-5.080641,4.9737763,-13.677279,0.0043750256,-5.6298294,-1.4151223
32.953297,-62.628754,-6.1675506,31.173313,5.4080057,-10.446573,-8.573392,8.014992,-14.50988,10.717989,-6.8195906,15.697028,4.007902,3.4153402,-14.795125,-2.9402242,0.8253847,-10.372834,-1.9111514,2.9980924,1.1011205,-0.49245283,9.64492,-18.864294,-1.2981578,0.49684379,-4.584142,-5.1998305,0.021033034,-2.0770388,-5.117795,16.646282,-15.748623,-3.9693105,0.3282563,-5.012293,-1.1311908,-3.3252397,-7.809705,-23.309574,17.705086,-5.847499,10.320814,10.098495,-3.4307692,-4.8679075,4.8754063,-9.009544,0.043861434,-5.6418552,-0.59103394
32.41157,-59.48677,-4.6593685,31.132982,5.0699224,-10.5964775,-8.608119,8.013366,-13.899137,10.751339,-6.8729753,15.88055,4.100083,3.7763708,-16.879534,-2.9365482,0.82447827,-10.260688,-1.8784554,3.0007997,0.13128996,-0.4558958,10.014987,-24.226097,-1.3088696,0.50612175,-10.898954,-5.445022,0.06913935,-4.625319,-5.1379848,16.005562,-20.514828,-4.033677,0.3645705,-7.8495255,-1.2149988,-3.3405848,-8.483126,-23.30939,17.705065,-5.847499,10.171486,9.260628,-7.6497025,-5.0296926,4.952254,-12.591107,-0.004658714,-5.629547,-1.5939438
32.675323,-59.489983,-5.5490503,31.072306,4.510623,-10.913236,-8.466862,7.9907618,-16.086641,10.6112,-6.8705654,14.012772,4.0365386,3.1373253,-16.179379,-2.938717,0.82483333,-10.350361,-1.8672861,2.9966366,-1.0309346,-0.49537095,9.398611,-20.726835,-1.2994375,0.4974966,-4.4033012,-5.2587066,0.032713518,-2.6264598,-5.1222253,16.281826,-16.790947,-3.9828079,0.3343087,-5.518353,-1.1751819,-3.3114233,-8.399189,-23.309988,17.705185,-5.8474994,10.346664,10.430966,-2.623735,-4.9544744,4.9114656,-11.15071,0.010724306,-5.6319103,-1.5532913
32.14419,-68.133415,-3.7689147,31.19611,5.667168,-10.338682,-8.687076,8.061757,-13.18463,11.0130005,-6.8567405,19.823574,3.9963853,3.3695495,-14.783773,-2.9416173,0.8264751,-9.593172,-1.9036646,3.0064733,0.63901424,-0.50434446,9.400855,-19.13039,-1.2985255,0.4974554,-4.4756813,-5.203318,0.033241168,-2.3742268,-5.1329885,16.471767,-14.739067,-3.9441788,0.29794222,-3.2011962,-1.065491,-3.3404267,-7.155269,-23.309984,17.705137,-5.8474984,10.42508,10.68538,-0.6000447,-4.8830314,4.865432,-10.001755,0.008623257,-5.6306324,-1.4354007
32.31046,-68.75694,-4.236071,31.16123,5.360946,-10.493694,-8.705598,8.060675,-12.965078,10.996065,-6.8625913,19.725098,4.020542,3.4588182,-15.578377,-2.940099,0.8253143,-10.872496,-1.892913,3.0066836,0.3706131,-0.4994303,9.495739,-19.725798,-1.3002714,0.49798882,-5.26717,-5.2207465,0.015348181,-2.4344358,-5.137566,16.349768,-15.6570635,-3.9684246,0.31581533,-4.483839,-1.1057345,-3.3382819,-7.6296616,-23.309916,17.705143,-5.8474984,10.398823,10.453829,-1.4528406,-4.9108944,4.880748,-10.706408,-0.0030520111,-5.630912,-1.6619651
33.027103,-52.142628,-6.760338,31.123724,5.033572,-10.606042,-8.695341,8.020197,-12.164727,10.662899,-6.79519,13.737743,3.9810016,3.774311,-12.796297,-2.93611,0.8207085,-12.044903,-1.8859998,2.982163,-0.26897883,-0.5027439,9.652041,-16.630857,-1.3060093,0.5039475,-8.5350275,-5.4082756,0.11933229,-4.390637,-5.1140337,16.700104,-14.652227,-4.0387025,0.40781996,-9.683561,-1.3183285,-3.2375727,-10.302609,-23.309715,17.705153,-5.8474994,10.326094,10.118044,-3.526608,-4.9581814,5.0278263,-11.835042,-0.12843314,-5.5927434,-4.6217303
33.133816,-61.399773,-6.8680606,31.15237,5.2637773,-10.525577,-8.678473,8.035821,-12.982114,10.812239,-6.816607,16.577606,3.9576898,3.6862245,-12.6874695,-2.9384508,0.8236365,-10.329641,-1.9163045,3.0003195,1.5879512,-0.51148635,9.488967,-16.283875,-1.302126,0.49970013,-6.146865,-5.287816,0.072466396,-3.1678004,-5.1240644,16.635782,-13.673484,-3.995485,0.3547386,-6.5847015,-1.2197269,-3.278085,-9.137654,-23.309898,17.705153,-5.847499,10.3927355,10.267508,-1.7100804,-4.888969,4.9202166,-9.938486,-0.057808906,-5.6136255,-2.850689
32.942215,-57.368973,-6.4215946,31.02878,4.1078963,-11.107492,-8.535966,7.997714,-14.915907,10.557665,-6.848352,13.097748,3.9853148,3.3505614,-13.93598,-2.9371808,0.82340574,-11.040624,-1.867104,2.993737,-0.9008086,-0.5098509,9.372426,-18.105633,-1.3017793,0.49913567,-5.738347,-5.3211284,0.05457481,-3.2317283,-5.12671,16.478014,-14.943274,-4.006833,0.3539258,-6.820824,-1.2273791,-3.2904747,-9.004088,-23.309862,17.705168,-5.8474994,10.386886,10.645445,-1.66109,-4.942336,4.9219346,-10.521837,-0.03961052,-5.6240826,-2.5292215
32.728348,-61.86385,-5.713458,31.101131,4.564899,-10.875809,-8.582696,8.00886,-14.413363,10.793109,-6.8560114,16.449871,3.9500833,3.1718085,-13.335172,-2.9382718,0.82350117,-11.080788,-1.9013497,3.0059676,0.8472991,-0.53017324,9.089061,-16.396736,-1.3016245,0.4988041,-5.727112,-5.2750783,0.039795205,-2.9355211,-5.125417,16.79227,-13.809902,-3.9931977,0.3512679,-6.3338733,-1.1737096,-3.2998788,-8.477638,-23.309635,17.70514,-5.847499,10.539135,11.226793,1.6867952,-4.9327383,4.9145074,-10.745913,-0.13193361,-5.60984,-4.528482
32.65932,-54.34823,-5.6693234,31.074183,4.524734,-10.886613,-8.623034,8.000527,-13.526908,10.615219,-6.7472925,13.241537,3.9674442,3.522103,-13.291501,-2.9383185,0.8225852,-10.655535,-1.8651962,2.9757693,-1.1747408,-0.5069739,9.4475975,-17.935848,-1.3023795,0.5010741,-6.3567457,-5.3452573,0.08368433,-3.637045,-5.1343584,16.280018,-15.46105,-4.0147786,0.3777534,-7.910425,-1.2564368,-3.2729557,-9.458724,-23.309824,17.705202,-5.8474994,10.3665495,10.128766,-2.7051902,-4.9000397,4.9317317,-9.687267,-0.05227326,-5.623592,-2.848929
32.425026,-56.229813,-4.8900223,31.115932,4.9289074,-10.676733,-8.682345,8.0250635,-12.551863,10.723202,-6.7851033,14.990563,3.9778464,3.4970932,-13.567292,-2.9381433,0.82266563,-11.375065,-1.8653629,2.9805477,-1.2436016,-0.50765455,9.482302,-17.726503,-1.3010966,0.5002459,-6.0168767,-5.307459,0.06854356,-3.2311091,-5.1366167,16.459764,-15.215009,-4.0042944,0.369534,-7.349487,-1.2170919,-3.2829804,-8.914778,-23.30967,17.705128,-5.847499,10.3556,10.442186,-2.6932216,-4.9115906,4.95101,-10.37038,-0.05358804,-5.6173882,-2.9947116
32.69492,-55.405983,-5.6417217,31.1034,4.6863575,-10.80579,-8.461539,7.9837866,-15.847351,10.565278,-6.8759985,12.964384,4.038401,3.0588372,-16.047523,-2.938201,0.8234565,-10.865756,-1.8664296,2.988976,-1.1566586,-0.49351305,9.379492,-20.308529,-1.3009585,0.50004274,-5.7157955,-5.329233,0.08071801,-3.5368319,-5.11263,16.548025,-16.384634,-3.9947278,0.3463696,-6.3194227,-1.1965662,-3.293989,-8.762468,-23.309717,17.705173,-5.8474994,10.365866,10.52669,-2.1606925,-4.9998436,4.949989,-11.78963,-0.04430645,-5.6163893,-2.7904432
32.81691,-62.261765,-5.837667,31.171246,5.462099,-10.43008,-8.537599,8.009132,-15.219255,10.736961,-6.8253407,15.664106,4.0494695,3.2971618,-16.696526,-2.9386802,0.8227339,-11.083325,-1.8879228,2.98556,-0.14372444,-0.48316762,9.569688,-20.871656,-1.299852,0.4980675,-4.7831683,-5.2319093,0.042758495,-2.5277913,-5.1076984,16.364523,-16.980278,-3.9799955,0.33821952,-5.686831,-1.1845579,-3.29977,-8.744641,-23.30997,17.705189,-5.8474994,10.292853,9.704209,-4.169134,-4.931487,4.9117556,-10.991356,0.01842314,-5.6284356,-1.193619
32.503788,-56.262726,-5.0769725,31.127752,5.049732,-10.606702,-8.590334,7.9911284,-14.12176,10.64398,-6.780526,13.981224,4.0385027,3.4688392,-15.875093,-2.935416,0.8197862,-12.320055,-1.8599211,2.9716227,-0.936455,-0.47980544,9.684666,-21.356098,-1.3061943,0.50478876,-9.1535015,-5.385926,0.07355408,-4.0201483,-5.114998,16.319887,-19.319736,-4.04015,0.4041686,-9.481958,-1.2644558,-3.2901788,-9.438305,-23.309418,17.705116,-5.8474994,10.208962,9.510868,-7.0177126,-4.991195,4.988799,-12.177501,-0.067126885,-5.615241,-2.9817889
31.876146,-66.191536,-3.0379736,31.208035,5.852679,-10.236616,-8.747304,8.073469,-12.196091,11.057557,-6.862227,20.19358,4.02923,3.5174696,-15.581455,-2.939531,0.8245283,-10.17039,-1.885634,2.998964,-0.007175684,-0.490175,9.5431385,-20.873192,-1.3019478,0.5011655,-6.6178026,-5.275812,0.059377402,-3.1398551,-5.1345925,16.315413,-16.465155,-3.9685388,0.3197512,-4.620697,-1.1058493,-3.3331742,-7.572397,-23.309984,17.70513,-5.847499,10.337775,10.375067,-2.8717415,-4.934199,4.912699,-11.390464,-0.0074050725,-5.6223297,-1.8036575
31.855598,-60.499863,-3.1041768,31.196915,5.816226,-10.237139,-8.724352,8.058376,-12.239954,10.960707,-6.846252,18.297817,4.019499,3.3420312,-15.473189,-2.9383173,0.82089293,-12.432553,-1.8642732,2.978219,-1.855319,-0.50016785,9.454375,-19.362295,-1.3027322,0.5024659,-7.111763,-5.3434334,0.11140358,-4.0188966,-5.1097236,16.58766,-15.4326105,-3.9808373,0.35348287,-6.1553445,-1.174105,-3.2771742,-8.74799,-23.309946,17.705168,-5.847499,10.364151,10.533169,-2.1251996,-4.961567,4.988208,-12.55309,-0.09202417,-5.591292,-3.8709035
31.935633,-65.451324,-3.1471262,31.231512,6.096568,-10.092287,-8.750184,8.071424,-12.009733,11.03809,-6.8879642,20.077122,4.0968122,3.57733,-17.718725,-2.9361627,0.8216823,-12.304907,-1.8735744,2.9930918,-0.32734537,-0.4678432,9.838376,-23.07184,-1.3046376,0.5028985,-8.390333,-5.299566,0.037043467,-3.2057526,-5.127869,16.267975,-19.27726,-4.0016623,0.34928226,-6.558708,-1.149965,-3.3361845,-7.967372,-23.309597,17.705053,-5.8474984,10.191389,9.745596,-6.791915,-5.008713,4.9702463,-13.393282,-0.012631834,-5.617398,-1.8827405
31.829098,-63.7046,-2.89968,31.230955,6.1099796,-10.083103,-8.797068,8.076982,-11.217586,11.056365,-6.8595657,20.03432,4.0609202,3.6225667,-16.399746,-2.936774,0.8213616,-12.267008,-1.8700237,2.9869268,-0.7640648,-0.47914892,9.747708,-21.485212,-1.3045171,0.5034982,-8.437093,-5.3252954,0.06622134,-3.5991695,-5.130155,16.35393,-17.877008,-3.9999774,0.35565048,-6.7314014,-1.1636744,-3.3163617,-8.251192,-23.309656,17.70507,-5.847499,10.242088,9.965407,-5.4631577,-4.98597,4.979525,-12.93428,-0.04452257,-5.607986,-2.6561553
31.823341,-61.579517,-2.957016,31.231037,6.142464,-10.065049,-8.729065,8.057413,-12.267751,11.020127,-6.855706,19.164684,4.0816045,3.5363138,-17.357094,-2.9354472,0.8191658,-12.488109,-1.8589678,2.9749322,-1.5469208,-0.4720223,9.718038,-22.560299,-1.3066376,0.5050621,-9.091295,-5.3853073,0.09463779,-4.357588,-5.1175284,16.162317,-18.65154,-4.012466,0.36858758,-7.456198,-1.2200718,-3.2929559,-9.171881,-23.309858,17.705137,-5.847499,10.216397,9.449104,-6.269846,-5.0430083,5.01333,-14.4121275,-0.082946785,-5.5926547,-3.4532948
36.092087,-58.31385,-15.797469,30.668703,1.0633647,-12.6606,-8.163274,7.7516975,-21.533558,9.538434,-6.6818027,-0.061120987,4.525311,4.7290416,-31.96434,-2.909052,0.77537894,-46.496582,-1.564753,2.8257565,-17.50346,-0.394427,10.37495,-37.923847,-1.3529942,0.5663592,-49.460186,-6.9867015,0.85834295,-22.890594,-5.003544,16.809422,-33.309196,-4.4457808,0.9064511,-40.373848,-2.145906,-2.8258948,-22.969555,-23.310047,17.70536,-5.8474984,10.593997,9.332523,3.2795296,-4.8113856,4.816328,-5.690325,-0.10354282,-5.6264887,-3.5204911
41.50802,-65.70087,-32.91611,30.047691,-4.3075533,-15.4357395,-7.093355,7.2430596,-40.18908,7.4652805,-6.154132,-26.076607,5.188897,7.349737,-50.65737,-2.8731155,0.71914566,-82.49937,-1.2188535,2.6856713,-34.2285,-0.28458327,11.058173,-59.3237,-1.3855097,0.61361235,-83.58699,-8.205097,1.425043,-37.230824,-4.841331,16.259724,-62.75744,-4.980983,1.6871635,-87.023094,-3.313334,-2.1706154,-40.871212,-23.3081,17.704947,-5.8474984,9.992367,5.825614,-12.682712,-5.0704966,5.11476,-14.550642,-0.14660975,-5.6075454,-3.4791713
41.561523,-66.13581,-33.368134,29.875109,-6.254038,-16.433285,-6.643452,7.035048,-47.77774,6.0006933,-5.4281473,-46.503525,5.1626415,6.5535207,-50.548626,-2.8640769,0.7050667,-90.22538,-0.96330357,2.4861686,-50.103943,-0.34360155,9.722442,-59.155266,-1.381942,0.6122444,-80.978745,-8.413692,1.7330221,-41.051056,-4.9093156,14.998147,-64.38067,-5.047139,1.815769,-92.77461,-3.6901593,-1.8354034,-47.462276,-23.30919,17.705511,-5.847498,9.816814,5.286666,-16.352825,-5.009504,5.1046643,-12.110977,-0.11889371,-5.5543265,-2.0818746
41.476418,-64.12349,-32.234894,30.03758,-3.791688,-15.186176,-7.230667,7.2540483,-38.430874,7.1266108,-6.116814,-31.096157,5.427356,6.0084896,-63.248753,-2.8523366,0.68496305,-106.57665,-0.9202642,2.4238667,-52.96763,-0.2648239,10.926983,-67.43195,-1.4081213,0.63702005,-95.860306,-8.840876,1.8930736,-46.085983,-4.8336554,16.044456,-66.347664,-5.09085,1.7860342,-93.34031,-3.732874,-1.837079,-48.41187,-23.307371,17.70519,-5.8474975,10.19925,5.6753817,-6.1530886,-4.8610034,4.986252,-7.785745,-0.15356545,-5.519049,-4.843777
42.119408,-64.91314,-34.90473,29.68708,-7.717067,-17.186207,-6.514206,6.966952,-50.11898,5.9030604,-5.5114202,-47.65067,5.1070185,6.5512743,-48.517002,-2.869048,0.7155617,-83.53458,-1.0317619,2.577558,-44.303947,-0.315845,10.255087,-61.468376,-1.3811355,0.60568005,-78.013336,-8.023889,1.3282598,-35.187572,-4.894511,15.144378,-67.53633,-5.0683126,1.7963939,-93.75017,-3.631988,-2.050911,-45.100197,-23.310001,17.705511,-5.847498,9.670157,5.5709615,-21.372831,-5.077921,5.1396565,-13.390979,-0.0380952,-5.6651845,0.33862066
40.132164,-64.825096,-28.44001,29.912573,-5.906003,-16.255194,-7.021468,7.227822,-41.999954,6.1413465,-5.552949,-45.10419,5.112194,4.5268745,-53.020954,-2.8602242,0.69711006,-96.220764,-0.80246747,2.3324363,-59.92886,-0.3955363,9.214822,-56.0055,-1.3739933,0.59716386,-68.68376,-7.989355,1.485741,-35.723137,-5.0177503,14.393049,-57.95427,-4.9116325,1.5670848,-80.109085,-3.528439,-1.9442546,-44.77354,-23.309925,17.705559,-5.8474965,9.815908,5.5575066,-15.685327,-4.87406,4.865961,-5.4269433,0.0964248,-5.6293473,2.5794377
37.56914,-52.696754,-21.158215,30.71442,2.1052327,-12.135478,-7.876962,7.5532384,-26.853065,8.4031925,-6.15415,-16.540798,4.969034,5.459182,-46.0456,-2.8732345,0.710289,-77.70419,-1.1120377,2.502745,-43.76517,-0.36038816,9.854641,-50.364525,-1.3767437,0.6123699,-71.92375,-8.10827,1.7684867,-38.9042,-4.9497395,15.401635,-51.148613,-4.825353,1.5516903,-75.98338,-3.3705869,-1.8631893,-44.045967,-23.309435,17.705368,-5.8474984,9.788052,5.7589164,-16.305317,-5.2995143,5.6087213,-26.272078,-0.525346,-5.297348,-13.939913
41.02514,-60.637657,-31.05791,30.019737,-4.4036236,-15.487124,-6.9055624,7.1187334,-42.932777,6.848689,-5.9123344,-35.4303,5.2362165,5.4253697,-56.49748,-2.8667123,0.7063141,-91.87751,-1.0522344,2.5211933,-45.27143,-0.28915238,10.676458,-62.136566,-1.3800255,0.60631776,-76.42143,-8.02811,1.4264181,-35.643887,-4.8352337,15.997096,-65.63887,-4.996632,1.7209482,-87.66955,-3.4756665,-2.0223927,-43.858585,-23.310383,17.70566,-5.8474984,10.014892,5.7277236,-11.958081,-4.9351864,5.1311293,-11.673315,-0.18593398,-5.5430493,-5.289717
39.493393,-57.56189,-27.09851,30.363638,-1.0924325,-13.807815,-7.5512223,7.378245,-32.555817,6.935726,-5.588,-35.77337,4.997866,6.261348,-45.955544,-2.8662386,0.69943255,-89.668495,-0.9117067,2.3306837,-57.079037,-0.35879043,9.595021,-56.737473,-1.3989583,0.6409642,-95.10353,-9.224718,2.4772093,-52.897694,-4.984988,14.980796,-54.596207,-4.963073,1.7211698,-87.587654,-3.7462115,-1.5944502,-50.214634,-23.3099,17.7054,-5.8474965,9.901681,6.3053417,-12.28059,-4.8738737,5.1340632,-10.433833,-0.08827118,-5.451541,-3.5987647
40.797424,-62.118134,-30.22876,29.740915,-6.591913,-16.645006,-7.028619,7.2344236,-41.177338,6.529418,-5.899864,-39.93207,5.066989,5.3562784,-50.228924,-2.8737147,0.72295934,-86.71239,-1.0176969,2.5236907,-47.89333,-0.33319598,10.357861,-58.66884,-1.3857863,0.60890573,-77.30693,-8.279348,1.5376537,-38.557705,-4.9149003,15.7337,-59.680763,-4.961035,1.6134514,-83.8458,-3.5064945,-1.979302,-44.667797,-23.308329,17.705229,-5.8475,9.882733,6.297864,-14.99243,-5.0897446,5.23948,-16.916775,-0.23838308,-5.5248938,-6.3994966
40.43302,-60.475914,-29.886253,29.88676,-4.691968,-15.633531,-7.038078,7.138859,-41.556244,6.3689375,-5.565921,-42.32333,5.1574545,7.1328535,-50.7558,-2.8668785,0.70041144,-96.40198,-0.87279123,2.3877995,-57.756947,-0.2760462,10.715537,-67.70108,-1.4138174,0.6571104,-105.94353,-9.404867,2.2905679,-53.49927,-4.8669705,15.574206,-68.62489,-5.136305,1.9254723,-100.35316,-3.8373485,-1.6603723,-51.105976,-23.309393,17.705029,-5.8475,9.732009,5.253524,-18.492184,-5.0217953,5.25423,-14.576517,-0.2035479,-5.489368,-4.9070125
42.236538,-63.85492,-35.180424,29.901512,-6.0247784,-16.318357,-6.790545,7.0799904,-45.557243,6.074772,-5.4910975,-45.526154,5.305174,6.5223513,-56.312584,-2.8545017,0.6892073,-98.578766,-0.89197356,2.4313154,-54.17886,-0.33121234,9.820009,-62.589096,-1.3924056,0.6234236,-86.9032,-8.617506,1.8444897,-43.55103,-4.9238505,14.655673,-67.201904,-5.113291,1.8762099,-97.38757,-3.901948,-1.7388179,-50.51745,-23.309666,17.705627,-5.8474975,9.738883,4.8807845,-18.624567,-4.97701,5.0705204,-10.733057,-0.02847895,-5.5862875,-0.86138153
40.05521,-60.833305,-28.190582,30.044252,-3.8939695,-15.224849,-7.2159295,7.285569,-38.61844,6.955615,-5.982229,-34.133587,5.160255,6.103046,-52.76791,-2.864392,0.7019625,-91.98755,-0.9972585,2.458358,-50.158215,-0.29649538,10.58419,-64.146194,-1.4042343,0.6408242,-96.42552,-8.992739,2.0103154,-47.917652,-4.90556,15.796261,-60.551064,-4.949993,1.6084617,-83.192986,-3.3715918,-2.0572293,-42.731113,-23.308933,17.705557,-5.8474975,10.261535,7.1058664,-4.9991384,-4.5853505,4.633692,2.7374678,0.17165369,-5.674129,2.6474862
41.878788,-61.804718,-33.621082,29.901976,-5.156024,-15.864225,-7.0563354,7.16502,-41.08758,6.4933176,-5.8248644,-39.955376,5.2048836,7.456599,-51.285835,-2.882713,0.72626334,-82.65931,-1.0965114,2.5314183,-43.18989,-0.20747897,11.517844,-74.897865,-1.4290829,0.67512006,-117.11809,-9.792829,2.4610755,-57.87395,-4.867589,15.4842,-70.99964,-5.131234,1.8530875,-97.00116,-3.7897902,-1.808066,-49.316723,-23.30938,17.705488,-5.8474975,10.048126,5.2022066,-11.188166,-4.88657,5.084298,-9.7186165,-0.1678093,-5.519828,-4.6337337
42.037174,-65.20495,-34.885487,29.721245,-6.9446497,-16.780357,-6.8116794,7.0663476,-46.16942,5.291625,-5.1703806,-57.30242,5.3300524,6.348139,-58.342464,-2.841745,0.66263694,-116.83024,-0.63715804,2.2129989,-70.26919,-0.31774792,9.846316,-67.11149,-1.4107866,0.6601537,-104.714676,-9.486854,2.4598765,-54.61271,-4.84032,15.758375,-68.67206,-5.215518,2.0826347,-109.21976,-4.15922,-1.4076831,-56.059063,-23.310024,17.705336,-5.847497,9.876091,6.3298798,-12.807529,-4.702645,5.0268087,-5.6840353,0.0024888813,-5.5473037,-0.0030255318
40.65182,-61.38977,-30.489609,29.827917,-5.711996,-16.186361,-7.1369762,7.2429104,-39.939056,6.0254564,-5.4312596,-47.068676,5.0205107,5.825172,-48.02431,-2.856937,0.6947413,-97.43592,-0.8251517,2.3197036,-61.323128,-0.34906334,9.618518,-58.421608,-1.4038353,0.64059526,-92.01813,-8.978913,2.1608865,-48.55808,-4.9319715,15.665872,-55.78428,-5.0081644,1.7026778,-88.74361,-3.6944294,-1.7457197,-48.5367,-23.30956,17.705252,-5.847498,10.127292,7.934784,-6.232187,-4.628758,4.7682037,0.119558334,0.13150254,-5.6357856,2.8039165
39.582886,-59.576042,-26.877354,29.944881,-4.897992,-15.771868,-7.375492,7.366369,-35.378628,6.6077366,-5.7277575,-39.44576,5.057164,4.987189,-51.573544,-2.8559177,0.68726045,-101.79794,-0.80122745,2.3182216,-62.27544,-0.38317382,9.527608,-53.880722,-1.3910949,0.6243233,-81.517746,-8.5083275,1.8409806,-42.26661,-4.964023,15.841813,-50.711243,-4.9096036,1.5541562,-80.71831,-3.4556274,-1.9289081,-44.297726,-23.308678,17.705116,-5.847498,10.268841,8.569372,-2.340619,-4.538792,4.631147,3.7969446,0.22116092,-5.692687,4.4100165
41.459244,-62.892197,-32.635483,29.917465,-5.0996237,-15.86311,-6.8849792,7.110129,-44.079987,6.4708204,-5.6929083,-40.44203,5.232288,6.3561835,-53.678917,-2.8639472,0.70345885,-87.13053,-0.99964607,2.4907122,-47.953915,-0.27660683,10.545011,-66.78982,-1.3949476,0.6272165,-87.37344,-8.523804,1.7253666,-42.55106,-4.9123588,14.547456,-70.157455,-5.085567,1.8137357,-94.42242,-3.79702,-1.8327848,-49.10161,-23.310787,17.705532,-5.847499,9.657996,3.7129416,-21.97504,-5.2326965,5.3428025,-19.872738,-0.27717936,-5.483566,-6.5562057
42.252846,-68.716324,-34.734695,29.574852,-8.312785,-17.510487,-6.772967,7.0931773,-47.16828,5.1807294,-5.31997,-57.91333,5.293601,5.51344,-59.064976,-2.8456268,0.6773322,-114.21542,-0.6429645,2.2235706,-71.13478,-0.32865757,9.783565,-68.41808,-1.4114662,0.64579844,-101.641785,-9.373978,2.2821841,-52.641296,-4.9248734,15.183358,-66.38291,-5.1435494,1.8638855,-99.42174,-4.0513973,-1.581551,-53.700382,-23.309706,17.705559,-5.847497,10.02013,6.3736906,-9.8804035,-4.603017,4.6971326,1.8602381,0.19356361,-5.6502094,4.669207
38.869694,-58.1825,-24.91312,30.219172,-2.2130904,-14.418665,-7.6678467,7.4921308,-30.312239,7.5708065,-5.9870586,-26.839687,5.1196933,5.5389295,-52.084457,-2.8557262,0.6927262,-97.358025,-0.8989766,2.4040494,-56.196636,-0.38842914,9.660415,-51.34336,-1.3865682,0.6147723,-78.383194,-8.339222,1.7521048,-40.502815,-4.9598503,15.591526,-50.520554,-4.907114,1.5833724,-80.102615,-3.426619,-1.9251276,-44.03867,-23.30825,17.7051,-5.847499,9.992452,7.1143656,-9.7951565,-4.8729296,5.002232,-8.508809,0.005438179,-5.565728,-0.8346205
41.09899,-59.01961,-31.76094,29.824068,-6.56104,-16.573452,-6.8327093,7.082587,-44.452744,6.3098173,-5.566781,-42.780342,5.0480714,6.9259686,-46.621067,-2.870836,0.7168103,-84.23689,-1.0806435,2.5689776,-42.734802,-0.30261543,10.697791,-58.84967,-1.3901309,0.61769706,-85.14906,-8.409384,1.5750123,-39.70935,-4.896222,16.077084,-58.312828,-4.969274,1.6309754,-83.91915,-3.311663,-2.2365794,-39.826035,-23.309496,17.705444,-5.847497,10.447244,7.4421186,-0.19856644,-4.4570513,4.467992,9.0714,0.27231383,-5.802623,7.2690587
40.642574,-60.415997,-30.552402,29.810934,-6.4025955,-16.523632,-7.081035,7.2209864,-40.50879,6.138361,-5.5235023,-45.54099,4.988474,6.2372046,-45.866253,-2.866868,0.71015227,-93.46309,-0.9263399,2.4220243,-54.52161,-0.37719822,9.689803,-53.52555,-1.3859656,0.61695755,-84.85452,-8.711467,1.9461014,-44.225147,-4.9002647,16.201622,-54.06118,-4.9634447,1.6855512,-86.57313,-3.4986725,-1.8901839,-44.922478,-23.306526,17.70506,-5.847498,10.127185,8.184575,-6.6022367,-4.6624207,4.837804,-1.6025066,0.07040575,-5.6464434,1.6452546
33.549706,-50.61999,-8.452417,30.923243,3.2338681,-11.5294695,-8.723561,7.9823704,-12.050348,10.011303,-6.4913473,5.0366955,3.8595266,3.9824243,-8.7807865,-2.932086,0.81329966,-16.33328,-1.8080878,2.9202,-4.4786105,-0.5370331,9.535382,-12.59902,-1.3058468,0.5071106,-10.886912,-5.5441394,0.2137245,-5.8996587,-5.1337266,16.69957,-12.702264,-4.079889,0.47627154,-13.469801,-1.4036058,-3.1796372,-11.348822,-23.309544,17.705198,-5.8474984,10.318603,10.712443,-3.487027,-4.7126045,4.878452,-3.905363,0.028460696,-5.658481,-0.5243721
33.435215,-64.013374,-7.900086,30.72411,1.5323889,-12.451491,-8.698096,7.971392,-13.439144,9.915142,-6.34621,4.7433696,3.8021038,3.9311013,-7.436217,-2.937894,0.8212512,-15.928433,-1.7782537,2.9134948,-5.629477,-0.56307936,9.229982,-12.451447,-1.3044597,0.50371045,-8.244928,-5.4212685,0.1190253,-4.373939,-5.1609592,16.614021,-13.402899,-4.0544624,0.44950205,-11.898207,-1.3093653,-3.1956139,-10.497902,-23.308949,17.704927,-5.847499,10.32434,11.060473,-3.6659122,-4.653687,4.8307962,-3.5206428,0.038939223,-5.683086,0.26590395
33.214333,-63.473152,-7.1504416,30.680166,1.1780045,-12.62046,-8.548827,7.978276,-15.226819,9.921199,-6.6638393,5.5156765,3.9205716,3.7558107,-11.132359,-2.9353335,0.82393605,-13.767808,-1.7490448,2.9549825,-6.274523,-0.52234495,9.431136,-17.358534,-1.3051982,0.50109684,-8.080036,-5.528913,0.08327629,-5.384489,-5.188279,15.837719,-14.684801,-4.0754223,0.38314733,-9.792759,-1.3406864,-3.2566752,-10.574448,-23.309456,17.705027,-5.8474984,10.258649,10.317414,-4.662734,-5.008719,4.9259796,-11.391518,-0.0034721196,-5.636225,-1.1085105
32.96706,-55.250095,-6.6218705,30.862305,2.6651525,-11.857319,-8.389469,7.9378314,-17.391668,10.085202,-6.6984234,6.4311376,3.960817,3.120653,-13.587227,-2.9370744,0.8215468,-12.716024,-1.7918319,2.949402,-4.9170146,-0.5174796,9.125304,-18.942945,-1.3039404,0.50290996,-7.108117,-5.4655714,0.13822463,-4.9859314,-5.1205163,16.368471,-15.736276,-4.0308456,0.3879416,-8.86636,-1.3001996,-3.2338295,-10.343679,-23.30977,17.705194,-5.8475,10.362105,10.7245245,-2.2088504,-4.9490657,4.9273653,-10.18709,-0.036998995,-5.6299806,-2.2032921
32.438633,-64.93719,-4.7173724,31.135502,5.0558057,-10.648833,-8.523732,8.0117445,-15.53505,10.768132,-6.854201,16.515486,3.9972165,3.1917973,-14.905005,-2.9413116,0.827351,-8.539978,-1.9009764,3.008448,0.9132376,-0.49978954,9.348562,-20.148382,-1.2982781,0.49765742,-4.3402767,-5.2090716,0.026346028,-2.2447293,-5.1233845,16.47286,-16.137026,-3.9519155,0.30656788,-3.6727505,-1.0757828,-3.3476372,-7.083782,-23.309938,17.705133,-5.847499,10.381186,10.695947,-1.8049132,-4.8944836,4.8596115,-9.69518,0.03616549,-5.642417,-0.7603588
32.98159,-58.82807,-6.5998588,30.911583,2.8309243,-11.75706,-8.52372,7.9944425,-15.121064,10.496742,-6.903641,12.589628,3.8969498,3.1036553,-11.439555,-2.9370134,0.82464474,-11.019872,-1.8637167,3.012921,-0.32573986,-0.5481677,8.906322,-14.476711,-1.3028861,0.49842682,-5.8022456,-5.3624406,0.03048414,-3.554399,-5.142996,16.727703,-11.817078,-4.0230117,0.34505966,-6.7180343,-1.2108101,-3.312183,-8.723619,-23.309572,17.705175,-5.8474994,10.59531,11.780181,3.3247614,-5.008102,4.9179187,-11.276368,-0.16583136,-5.6091795,-5.1321917
33.57015,-63.569576,-8.082763,31.05842,4.3137884,-11.01175,-8.663053,8.032752,-13.2769165,10.739825,-6.84683,16.101595,3.980741,3.836166,-13.132988,-2.9379594,0.8257763,-10.26701,-1.9212403,3.0199223,2.2634,-0.5080559,9.647411,-16.702694,-1.3020189,0.4970269,-5.707273,-5.2513742,-0.005077854,-2.3916264,-5.1457357,16.366297,-14.380492,-4.0105968,0.34495598,-6.5917473,-1.2112315,-3.3192718,-8.692898,-23.309774,17.705126,-5.847499,10.383034,10.122921,-2.1817331,-4.889873,4.8731723,-9.24846,-0.008589387,-5.641995,-1.6026359
33.72406,-58.52276,-8.749726,30.961922,3.206166,-11.570259,-8.464127,7.967903,-16.127783,10.474885,-6.875445,12.09832,3.971116,3.1959088,-13.688836,-2.934709,0.82183325,-12.27345,-1.8868979,3.0094051,0.72418165,-0.528191,9.106049,-16.447426,-1.3043752,0.49923363,-6.395391,-5.322459,0.026500314,-3.1149545,-5.122768,16.77633,-14.075834,-4.04032,0.37751377,-8.625004,-1.2757027,-3.279714,-9.667533,-23.309753,17.705194,-5.8474994,10.548784,11.254467,1.9216418,-4.972421,4.913316,-10.725748,-0.13521078,-5.6226764,-4.459096
33.001156,-60.417336,-6.4801197,31.003334,3.6613736,-11.342347,-8.381725,7.9416323,-17.447926,10.324469,-6.725741,10.134315,3.9810631,3.0649118,-14.206383,-2.9407275,0.8261252,-10.476577,-1.8677075,2.9837673,-1.1622643,-0.5125872,9.178624,-18.917696,-1.2998776,0.49879816,-4.8872705,-5.3051414,0.0740684,-3.3217976,-5.124104,16.543913,-15.984173,-3.995977,0.36417225,-7.084161,-1.2072556,-3.2683907,-9.078432,-23.30942,17.705091,-5.8474994,10.396653,10.634098,-1.7393743,-4.958067,4.9408026,-11.533179,-0.05896184,-5.6218505,-2.881551
33.14083,-59.7073,-6.9875574,31.093319,4.660549,-10.825705,-8.744256,8.040677,-11.856075,10.764171,-6.775387,15.892023,3.8811235,3.6664686,-10.267938,-2.9382577,0.82320356,-10.619617,-1.9208264,3.0011942,2.1695719,-0.53541034,9.333622,-13.226273,-1.3007839,0.49874073,-5.6132708,-5.2408724,0.03687194,-2.3915417,-5.1268015,16.933983,-12.150066,-4.000348,0.36516047,-6.994474,-1.1897067,-3.2950644,-8.465414,-23.30968,17.70511,-5.847499,10.455735,10.972509,-0.42926168,-4.8205967,4.894954,-7.8286963,-0.075285465,-5.626404,-3.0546274
34.324593,-57.75525,-10.522671,30.917263,2.866889,-11.745123,-8.43596,7.9533467,-16.62608,10.362886,-6.905122,10.813538,4.000733,3.4409187,-14.20387,-2.9330654,0.82101196,-13.355022,-1.8957708,3.018199,1.4952388,-0.5167594,9.299593,-17.646143,-1.3090625,0.50417835,-10.246197,-5.443542,0.08223331,-4.396822,-5.1036816,16.958113,-15.322321,-4.0649877,0.40328646,-10.315947,-1.3197507,-3.2751276,-10.029496,-23.309717,17.705236,-5.847499,10.532734,11.376872,1.6747942,-4.9113536,4.865562,-8.46036,-0.08125385,-5.6410575,-3.175187
33.48911,-56.43112,-8.055472,31.025658,3.9263387,-11.201525,-8.489082,7.988183,-15.521418,10.534564,-6.9169817,12.840956,3.9920564,3.249574,-14.115536,-2.9355938,0.82258344,-11.106234,-1.8879334,3.009762,0.7364135,-0.5137714,9.245753,-17.472052,-1.3023443,0.49914706,-5.945479,-5.314081,0.050483808,-3.0897872,-5.115921,16.757717,-14.564107,-4.020189,0.35993883,-7.46112,-1.249112,-3.285555,-9.2586775,-23.30987,17.705193,-5.8474994,10.436329,11.0030365,-0.46098852,-4.9866867,4.937599,-11.191591,-0.08310429,-5.6169553,-3.4938922
32.82554,-53.151276,-6.11668,31.06488,4.3932357,-10.949281,-8.543969,7.968111,-14.685829,10.443755,-6.705825,10.889446,3.9521368,3.2593653,-13.2065525,-2.9380195,0.8207399,-11.824111,-1.8646382,2.9655123,-1.2451897,-0.5081853,9.386401,-17.663654,-1.3017453,0.5019253,-6.6241136,-5.3406143,0.09636318,-3.613192,-5.1096873,16.737263,-15.380179,-4.0166473,0.3933397,-8.63745,-1.2554663,-3.260767,-9.493497,-23.309654,17.705189,-5.8474994,10.416219,10.500458,-1.4586263,-4.869942,4.9297647,-8.844704,-0.070705436,-5.6242223,-3.1934676
33.782494,-55.780704,-8.995356,30.950771,3.1271667,-11.596065,-8.605224,8.00041,-13.711498,10.561558,-6.8741937,13.000683,3.9394956,3.6003258,-11.889208,-2.9343548,0.82243794,-12.042041,-1.8970833,3.0146441,1.1552057,-0.5361094,9.26882,-14.179477,-1.3065661,0.500662,-7.791069,-5.402502,0.05448863,-3.970131,-5.144599,16.638634,-12.426268,-4.055812,0.38429123,-9.101448,-1.3080356,-3.2761211,-9.946949,-23.309599,17.705181,-5.8474994,10.5696,11.134808,2.3809633,-4.939222,4.901625,-9.46506,-0.14956644,-5.6196766,-4.810405
33.25232,-55.078167,-7.4001884,30.956554,3.2760255,-11.532765,-8.39147,7.9580536,-17.026762,10.418669,-6.900359,11.069746,4.035283,3.0843885,-15.876823,-2.9351144,0.8221463,-11.866689,-1.850441,2.997333,-1.664391,-0.5078563,9.22958,-19.54087,-1.303385,0.49936756,-5.9373875,-5.3668766,0.052878737,-3.6529346,-5.1245656,16.339098,-15.929596,-4.029149,0.36434495,-7.8019056,-1.2765576,-3.279566,-9.71329,-23.30996,17.705238,-5.8474994,10.446575,10.781786,-0.26908302,-5.0207124,4.933339,-11.871385,-0.08019167,-5.6211114,-3.4946814
32.51763,-53.418583,-5.317053,31.00544,3.89693,-11.21494,-8.539795,7.97865,-14.829249,10.476427,-6.750463,11.38407,3.9251192,3.1843646,-12.391312,-2.9388034,0.8224998,-10.852088,-1.8507065,2.9726593,-1.9180871,-0.52541995,9.1536255,-16.715322,-1.3019304,0.5019777,-6.2061586,-5.371055,0.10464265,-3.9843183,-5.1162534,16.597252,-14.4873905,-4.0051346,0.37854135,-7.5626493,-1.2162757,-3.2718797,-9.055847,-23.309856,17.705208,-5.8475,10.430723,10.990819,-0.90773964,-4.905604,4.939336,-9.566926,-0.08693589,-5.618172,-3.4931123
33.518238,-60.37776,-8.116097,30.98232,3.4372377,-11.459854,-8.544975,7.9953156,-15.016545,10.625763,-6.8783817,14.118582,3.9575179,3.3008919,-13.41427,-2.9351292,0.8217888,-12.155356,-1.8942604,3.0117412,0.9668226,-0.53398156,9.106468,-15.654016,-1.3047304,0.4995821,-6.6402555,-5.3455777,0.043192327,-3.51304,-5.130822,16.643778,-13.11166,-4.0313706,0.36653137,-7.873478,-1.2600456,-3.2840798,-9.579197,-23.30984,17.70523,-5.8474994,10.600188,11.217429,3.1720057,-4.9382396,4.8827734,-9.933749,-0.14272511,-5.618796,-4.631069
33.088085,-64.47235,-6.61255,30.98583,3.7709007,-11.301594,-8.385538,7.949996,-17.811548,10.282424,-6.761587,10.10515,3.997936,3.1661599,-14.940293,-2.938875,0.8243571,-12.043001,-1.8400862,2.979958,-2.0930715,-0.50156844,9.364402,-20.174192,-1.3016088,0.49965316,-5.9521704,-5.338002,0.071342334,-3.6299753,-5.124028,16.461767,-16.314007,-4.006392,0.3603136,-7.2594333,-1.2373307,-3.2711132,-9.500799,-23.309675,17.705166,-5.847499,10.367485,10.421193,-2.050148,-4.94241,4.908764,-11.115995,-0.009506524,-5.6274757,-1.7874887
33.48347,-62.272865,-7.7649055,30.982746,3.6554089,-11.360848,-8.313311,7.941234,-18.744822,10.221007,-6.792829,9.106819,4.066097,3.1608882,-16.912992,-2.9390683,0.82549053,-11.133307,-1.8564905,2.9861567,-1.4995325,-0.47923994,9.5456295,-22.80835,-1.3021948,0.49977565,-6.5138197,-5.3663864,0.08793426,-3.961307,-5.1152716,16.314295,-17.96497,-4.0051894,0.34644094,-6.9172273,-1.2486959,-3.2733989,-9.602419,-23.309668,17.705162,-5.8474994,10.317703,9.953822,-3.222358,-4.968168,4.89152,-11.08277,0.0419095,-5.6415396,-0.6381545
34.30683,-68.2254,-10.052938,30.946266,3.126195,-11.646287,-8.274842,7.9426365,-19.452665,10.318798,-6.90838,11.209904,4.0947175,3.1094987,-17.956337,-2.9367025,0.8263662,-10.857968,-1.9071248,3.032009,1.9554324,-0.48212796,9.480101,-22.189249,-1.3015227,0.49502474,-4.3517194,-5.225641,-0.020645097,-2.0930126,-5.1157904,16.37323,-17.537916,-4.022772,0.34200305,-7.098359,-1.2667692,-3.2885425,-9.698758,-23.309933,17.705141,-5.847499,10.373918,10.109969,-1.9775411,-5.0866957,4.9471245,-14.897425,-0.04038401,-5.622737,-2.4245505
33.430347,-63.26912,-7.6543007,30.971191,3.5172238,-11.438792,-8.263926,7.928785,-19.566332,10.294328,-6.853529,10.334611,4.0696516,2.9153056,-17.573412,-2.9382765,0.82485783,-11.492479,-1.8616722,2.99866,-0.8937266,-0.48825896,9.311799,-22.779833,-1.3012496,0.4986164,-5.391568,-5.2819004,0.039646104,-2.8480568,-5.0978513,16.514585,-18.570724,-4.0009923,0.35354564,-6.915122,-1.2148058,-3.2886555,-9.058715,-23.309877,17.705173,-5.8474994,10.331466,10.536641,-2.953474,-4.996883,4.9199038,-12.242353,0.01150547,-5.636189,-1.3094184
33.926514,-53.913864,-9.372703,30.952448,3.2618828,-11.528381,-8.3453665,7.92027,-17.79809,10.225172,-6.809745,8.285009,4.035056,3.2463434,-15.616565,-2.9341943,0.82036406,-12.532478,-1.8620456,2.9883265,-0.8413203,-0.49623185,9.437825,-19.445904,-1.3056316,0.4998533,-6.509131,-5.3713174,0.046317548,-3.6858454,-5.1113214,16.309793,-16.904408,-4.0733366,0.42037952,-11.112958,-1.4144285,-3.2223637,-11.676427,-23.309925,17.705263,-5.8475,10.356048,9.711636,-3.1794,-5.0945873,5.046601,-15.006331,-0.16234155,-5.5937986,-5.3032107
34.26894,-59.38504,-10.229338,30.94615,3.0800748,-11.634568,-8.310974,7.935997,-18.523497,10.325097,-6.938732,10.296192,4.0681,3.1472583,-16.926466,-2.932433,0.8204069,-13.775166,-1.879611,3.0127635,0.13772416,-0.50438434,9.336881,-19.743113,-1.3076882,0.5002426,-8.156277,-5.4344673,0.0740336,-4.4692297,-5.117303,16.525534,-15.751518,-4.063391,0.38631886,-9.711931,-1.3906513,-3.2322495,-11.410912,-23.309734,17.705263,-5.8474994,10.535081,10.5452385,1.8375978,-5.0520287,4.936461,-13.083877,-0.1511067,-5.600447,-5.160026
36.89198,-74.5853,-17.988708,30.543598,-0.37281132,-13.445893,-7.7159023,7.6631994,-29.392897,9.073236,-6.6180506,-4.355503,4.369687,4.2896605,-26.01548,-2.9191387,0.7999239,-31.516928,-1.6855515,2.9354725,-9.588688,-0.42867535,9.779547,-33.83008,-1.331545,0.53283274,-31.393007,-6.3032103,0.47556543,-14.838547,-5.052911,16.274284,-29.667974,-4.326607,0.72943914,-30.83448,-1.9280849,-2.960219,-19.791878,-23.309301,17.705292,-5.847498,10.462228,9.439118,0.10396433,-5.01438,4.854281,-11.878199,-0.048557557,-5.644764,-1.9328175
34.367622,-52.953472,-10.581247,30.784798,1.8969867,-12.237008,-8.2197275,7.8286285,-19.969769,9.527221,-6.5253987,-1.0622578,4.0545673,3.1751623,-16.593672,-2.9328637,0.81541073,-16.413256,-1.7839885,2.9340687,-4.451495,-0.47476494,9.610452,-22.566488,-1.3065975,0.5058273,-8.931164,-5.4781256,0.12927675,-4.9513354,-5.0944505,16.451103,-20.582376,-4.1404004,0.5288766,-17.364834,-1.5817046,-3.1146412,-14.164978,-23.309748,17.70525,-5.8475,10.264834,9.448746,-5.542,-5.073414,5.1352634,-15.771295,-0.17427182,-5.589017,-5.5920434
34.676125,-67.09212,-11.21369,30.97692,3.4540358,-11.482183,-8.255048,7.952144,-19.76567,10.373366,-6.9932766,11.925694,4.181842,3.080757,-20.9239,-2.930465,0.819076,-14.529998,-1.8723127,3.0152683,0.06375027,-0.4772605,9.431379,-23.553133,-1.3015757,0.49425182,-4.692812,-5.2142606,-0.026855677,-1.8450017,-5.104075,16.302721,-19.227842,-4.039139,0.35921532,-8.400272,-1.3365415,-3.2593284,-10.696456,-23.310144,17.705212,-5.847499,10.273207,9.93487,-4.2686048,-5.0924096,4.934901,-14.587574,0.011630893,-5.6310267,-1.3123806
33.427925,-58.63382,-7.9799347,30.855083,2.4084246,-11.96906,-8.500964,7.9678698,-15.653116,10.316221,-6.8320756,10.058831,3.9461663,3.0468314,-13.677498,-2.9290268,0.81276506,-18.0136,-1.7927662,2.9613948,-4.3728313,-0.55415756,8.7760725,-15.103885,-1.3079866,0.50349444,-9.194006,-5.4797363,0.08602954,-5.0066285,-5.1333637,16.684986,-13.408722,-4.094397,0.43377784,-12.117329,-1.4086396,-3.205672,-11.762728,-23.309637,17.705229,-5.847499,10.583793,11.483602,2.7761269,-5.031552,4.9625545,-12.196248,-0.23996438,-5.5884542,-6.612912
34.024933,-60.40079,-9.467702,30.960215,3.3333578,-11.5213375,-8.283738,7.9278436,-19.049034,10.202156,-6.8598256,8.817259,4.081144,2.9023318,-17.926218,-2.9326243,0.8185217,-14.996641,-1.8527261,2.988363,-1.2411287,-0.49595857,9.279053,-21.364843,-1.303492,0.50026274,-6.992702,-5.3398557,0.07283743,-3.4240613,-5.09093,16.864637,-17.561981,-4.039681,0.39183393,-9.581483,-1.3252078,-3.2353804,-10.555255,-23.309748,17.705198,-5.8474994,10.431381,10.939836,-0.3734119,-4.970728,4.9166207,-11.358937,-0.046586707,-5.627692,-2.749395
33.987026,-62.390163,-9.314091,30.937918,2.9670696,-11.699895,-8.26339,7.91634,-19.505585,10.345411,-6.9315176,10.991621,4.077029,2.8872142,-18.020355,-2.9336782,0.8205926,-14.623608,-1.8800964,3.014876,0.3856969,-0.50103515,9.2378435,-21.325274,-1.3064617,0.5012971,-8.530996,-5.3622956,0.024090901,-3.5079548,-5.091527,16.900915,-17.727724,-4.044213,0.38208282,-9.100983,-1.2664193,-3.3012264,-9.507139,-23.309612,17.705246,-5.847499,10.577528,11.26094,2.653201,-4.9486375,4.844859,-9.829553,-0.07650708,-5.6442237,-3.1939049
32.51509,-59.255264,-5.156806,30.957205,3.1343176,-11.609443,-8.289281,7.910738,-19.117191,10.374935,-6.777824,10.469656,3.9681432,2.5423405,-15.23769,-2.9387789,0.8214825,-12.566706,-1.8485574,2.9798715,-2.31426,-0.53178054,8.794202,-19.010544,-1.3032578,0.50169736,-6.8543444,-5.3982882,0.08369647,-4.404185,-5.101749,16.69227,-15.744621,-4.0026493,0.37322393,-7.4079504,-1.1920719,-3.2866652,-8.993867,-23.309643,17.705292,-5.8475,10.658581,11.506148,4.248552,-4.9321156,4.876584,-10.047757,-0.1604089,-5.6189723,-5.0591664
33.337055,-60.38122,-7.501022,30.915928,2.7784262,-11.790916,-8.331507,7.93652,-18.292892,10.395021,-6.8947434,11.260831,4.012551,2.8475754,-15.891532,-2.9366727,0.82400805,-12.194422,-1.8770438,3.0149486,-0.16699743,-0.515031,9.147508,-19.604431,-1.3047153,0.4992896,-6.671177,-5.349484,0.014686897,-3.430902,-5.115895,16.628462,-15.583351,-4.0266924,0.35704437,-7.502893,-1.2296077,-3.312306,-9.028708,-23.30974,17.705236,-5.8474994,10.63851,11.37215,4.166107,-4.9742117,4.8698497,-10.731462,-0.11958733,-5.632557,-4.227538
33.322456,-66.69679,-7.336176,30.999521,3.541519,-11.423949,-8.312232,7.9561944,-18.864643,10.574911,-6.9644175,14.268175,4.0232124,2.7561069,-16.570333,-2.9375653,0.82546157,-11.513395,-1.9017837,3.0301752,1.2471871,-0.5205021,8.9651375,-19.641634,-1.3035725,0.4987418,-6.072494,-5.3136854,0.037207693,-3.3167117,-5.1088614,16.781502,-15.181078,-3.9944227,0.33055237,-5.683066,-1.1721117,-3.3126304,-8.551792,-23.309757,17.70521,-5.847499,10.640039,11.670724,4.5954485,-4.982721,4.85918,-11.536945,-0.110637754,-5.6190367,-4.0984707
32.916714,-54.566513,-6.330863,30.954576,3.1857815,-11.561057,-8.349903,7.92357,-17.658363,10.291032,-6.8090177,9.2415085,4.004244,2.970331,-15.147951,-2.938271,0.82410085,-11.902783,-1.8514878,2.9885833,-1.9117624,-0.50701845,9.283612,-19.955273,-1.3054084,0.50283265,-8.19031,-5.4616575,0.10012134,-4.901013,-5.1237173,16.526987,-16.213799,-4.031432,0.3788767,-8.432228,-1.264688,-3.2798855,-9.585754,-23.309372,17.70521,-5.8474994,10.554638,10.914539,2.041717,-4.9656606,4.9071946,-10.467409,-0.11698979,-5.6207457,-4.3783617
33.214478,-58.56534,-7.064676,30.98762,3.575241,-11.386266,-8.269126,7.935758,-19.001167,10.368019,-6.9245105,10.861204,4.135544,2.9676223,-19.404099,-2.9356904,0.82319367,-11.800155,-1.8363751,2.996725,-2.4990592,-0.47467327,9.472175,-23.716509,-1.3009251,0.49665183,-4.3659625,-5.307165,0.010388255,-2.9935176,-5.127063,15.912564,-19.004845,-4.0204725,0.34763783,-7.0166078,-1.2657763,-3.2962692,-9.659831,-23.309992,17.705225,-5.8474994,10.294846,9.778794,-3.9685292,-5.111822,4.9625044,-14.606196,-0.015603572,-5.6223526,-2.162939
33.362007,-53.575512,-7.637479,30.998678,3.8096206,-11.260698,-8.276566,7.9300494,-18.712273,10.231364,-6.879751,8.484799,4.138014,3.037374,-19.274075,-2.9336476,0.8193509,-13.435516,-1.8069887,2.968791,-4.2017217,-0.47453117,9.475981,-23.595795,-1.3032435,0.50081426,-6.2679157,-5.4214664,0.11311508,-4.464798,-5.1178403,16.00298,-19.037596,-4.040926,0.38690543,-9.18327,-1.3728652,-3.2193124,-11.317908,-23.310013,17.70526,-5.8474994,10.244824,9.669917,-4.920779,-5.0992575,5.007038,-14.602052,-0.030854508,-5.6033306,-2.761258
33.33433,-67.118256,-7.1600776,30.995222,3.7916358,-11.309051,-8.124302,7.905399,-21.865557,10.331154,-6.9540486,11.498774,4.1811485,2.7335675,-21.786226,-2.9391704,0.82684463,-11.291814,-1.8565297,3.0143683,-0.94516087,-0.45400944,9.526334,-27.687359,-1.3002092,0.49707088,-4.673,-5.2346244,-0.0111503005,-2.2441885,-5.089518,16.161236,-22.25483,-3.9905524,0.33355904,-5.8397913,-1.1763123,-3.332146,-8.500588,-23.310009,17.705214,-5.847499,10.220553,9.8632555,-5.6546745,-5.0818872,4.9295344,-14.603007,0.076363295,-5.64054,-0.032197
34.335445,-62.771564,-10.280178,30.905249,2.7961574,-11.797113,-8.1295,7.8891306,-21.62751,10.139924,-6.941293,8.385169,4.1894493,3.0740051,-21.092133,-2.9329534,0.821172,-14.388842,-1.8324592,3.0013301,-2.1973512,-0.47065735,9.48091,-25.523548,-1.3074374,0.5006297,-8.259828,-5.443142,0.06322226,-4.5774603,-5.1174874,15.925003,-20.91633,-4.0709186,0.39704704,-10.466514,-1.4158533,-3.2307162,-11.888009,-23.30983,17.705288,-5.847499,10.302043,9.516436,-3.9843013,-5.146447,4.9731913,-15.779537,-0.053002626,-5.611452,-3.0015864
33.73488,-59.62685,-8.656768,30.960625,3.3594644,-11.500916,-8.256488,7.9007688,-19.598259,10.219657,-6.807014,8.751598,4.0616794,3.0090876,-17.32928,-2.9350736,0.82013905,-13.459787,-1.8510878,2.984983,-1.3700868,-0.49452686,9.294184,-21.410307,-1.3053988,0.5011816,-7.1221137,-5.385975,0.07520933,-4.067602,-5.099612,16.381222,-18.296757,-4.054446,0.41482556,-10.476794,-1.3721946,-3.223249,-11.373411,-23.30985,17.705282,-5.8474994,10.38035,9.971954,-2.4376626,-5.0596323,5.00132,-14.4193,-0.13237467,-5.5970716,-4.6475744
33.004776,-53.05445,-6.6904902,30.922857,2.9942615,-11.660116,-8.277867,7.8719378,-18.958263,10.054296,-6.6615815,5.8613,4.0242605,2.8885884,-16.175737,-2.9347212,0.8171211,-14.55776,-1.803936,2.944954,-4.053386,-0.50205123,9.160473,-21.280693,-1.3059704,0.5052544,-8.6673765,-5.4608736,0.11805921,-4.884752,-5.0985622,16.40734,-20.254953,-4.0758667,0.47132733,-13.021484,-1.3942668,-3.1949494,-11.58866,-23.30934,17.705193,-5.8475,10.272955,9.978319,-5.780963,-5.0709157,5.082087,-14.952988,-0.1874971,-5.585507,-5.7643676
