39.023247,-61.16924,-29.019722,28.71827,-4.1517353,-14.971745,-6.8304014,6.9683504,-39.92899,5.8252172,-5.25272,-45.387558,4.942019,2.421025,-53.66343,-2.8204713,0.669454,-100.65958,-0.89265096,2.3837373,-56.365654,-0.43524486,8.751392,-40.409134,-1.2859035,0.5119947,-8.69013,-5.3644853,0.18916486,-5.6286597,-4.6718144,15.950737,-63.426723,-4.9966683,1.9052004,-104.31885,-4.219034,-1.3483582,-55.91614,-22.469227,17.190964,-5.7274942,7.925291,2.1188025,-66.151634,-6.8362494,7.8458557,-97.97679,-1.7058685,-4.7873545,-44.90924
40.147522,-63.03329,-29.740376,29.541975,-4.4289017,-15.427233,-6.921408,7.0844545,-41.503098,5.8888345,-5.3049307,-47.290886,4.9888434,2.2346997,-54.966637,-2.825328,0.6665157,-103.19053,-0.87091184,2.3809965,-57.95024,-0.44000626,8.858255,-40.71138,-1.2824233,0.50805044,-5.84816,-5.324668,0.11669955,-4.222121,-4.727669,16.369762,-64.46245,-5.041292,1.9211394,-106.00622,-4.270019,-1.3507581,-56.925453,-23.095776,17.635544,-5.800028,8.102117,2.195711,-67.60139,-6.936222,7.9678082,-100.30894,-1.7252365,-4.8574696,-45.701263
40.44226,-63.57086,-29.85034,29.777275,-4.5491505,-15.581294,-6.951583,7.1199875,-41.891636,5.9015846,-5.3209205,-47.895294,4.9996877,2.1494582,-55.33076,-2.8265827,0.6652349,-104.20033,-0.85857344,2.3770223,-58.74101,-0.4434767,8.860316,-40.74558,-1.2814268,0.5069369,-5.2418265,-5.3256555,0.10178926,-3.982276,-4.7461486,16.48582,-64.61407,-5.054568,1.9239479,-106.473564,-4.285474,-1.3504446,-57.2393,-23.27856,17.765055,-5.8213353,8.164753,2.276418,-67.6859,-6.9592485,7.9935718,-100.73534,-1.7277778,-4.8793054,-45.882347
40.24492,-63.27379,-29.657492,29.658014,-4.4516115,-15.482943,-6.9451046,7.1064157,-41.507034,5.9147463,-5.327309,-47.27583,4.996011,2.2026296,-55.228928,-2.8256085,0.6658583,-103.76537,-0.8614997,2.3778238,-58.52668,-0.4407114,8.863419,-40.948196,-1.2829129,0.50836253,-6.4022183,-5.36292,0.1284525,-4.5927935,-4.737768,16.401466,-64.45182,-5.046924,1.9181108,-106.06118,-4.2772455,-1.3512459,-57.070526,-23.183899,17.697464,-5.809292,8.143727,2.2684057,-67.22599,-6.940466,7.9636297,-100.07486,-1.7193719,-4.8687143,-45.629826
39.816345,-62.611576,-29.289986,29.375868,-4.322833,-15.307947,-6.9217463,7.0705147,-40.806683,5.912072,-5.321081,-46.335876,4.978574,2.2738423,-54.73863,-2.8239095,0.6672039,-102.76094,-0.8686863,2.3793054,-57.981518,-0.43868485,8.828428,-40.928078,-1.2848129,0.5102121,-7.9068027,-5.3996325,0.16460317,-5.377567,-4.7194047,16.242361,-63.966747,-5.0295444,1.9077102,-105.25115,-4.2558312,-1.3532045,-56.657925,-22.967,17.543234,-5.7833385,8.090802,2.2733123,-66.42382,-6.901762,7.910513,-98.96459,-1.7083924,-4.844654,-45.2563
40.135117,-63.124104,-29.53086,29.59434,-4.4393005,-15.452742,-6.9416895,7.099497,-41.31206,5.9156528,-5.3298836,-47.03073,4.9909134,2.2185395,-55.089813,-2.825173,0.6661944,-103.5544,-0.8613453,2.3777177,-58.494026,-0.44048628,8.849178,-40.99962,-1.2837372,0.5091178,-7.1147914,-5.387803,0.14432578,-4.9859877,-4.734428,16.358292,-64.28185,-5.042964,1.9140642,-105.82823,-4.272229,-1.352191,-56.972572,-23.136475,17.663515,-5.8031683,8.139217,2.3012168,-66.81126,-6.9276633,7.9433565,-99.58611,-1.7137219,-4.8643,-45.46924
40.499626,-63.7398,-29.759027,29.864462,-4.5336084,-15.60357,-6.97334,7.1373997,-41.7809,5.933881,-5.352563,-47.64044,5.000231,2.1908283,-55.27093,-2.8268225,0.6657312,-103.9898,-0.8562346,2.378846,-58.862976,-0.44117346,8.889238,-41.284103,-1.2836972,0.508966,-7.120214,-5.416497,0.14347886,-5.063896,-4.7510967,16.484613,-64.73124,-5.059907,1.922296,-106.63889,-4.2982097,-1.3463593,-57.441284,-23.342808,17.809505,-5.8251777,8.188678,2.3321981,-67.45337,-6.9724464,7.998038,-100.7374,-1.73307,-4.878879,-46.027924
40.24859,-63.377007,-29.500868,29.711716,-4.465598,-15.510196,-6.963894,7.119437,-41.342175,5.9327974,-5.3517127,-47.107285,4.9876356,2.219156,-54.922043,-2.8259213,0.6665559,-103.392586,-0.8589205,2.3792117,-58.61685,-0.44077057,8.859993,-41.25845,-1.2849377,0.5101055,-8.120171,-5.4461937,0.1684359,-5.6224866,-4.7417564,16.393946,-64.412895,-5.0505447,1.9159558,-106.20693,-4.2880626,-1.345836,-57.244247,-23.225864,17.726227,-5.810835,8.160216,2.3530843,-66.9896,-6.9546375,7.972605,-100.231094,-1.7308801,-4.8633957,-45.925484
40.272392,-63.39248,-29.557951,29.708986,-4.519553,-15.540273,-6.9573555,7.116763,-41.480858,5.9115663,-5.3382077,-47.430386,4.992633,2.1750765,-55.166077,-2.825602,0.6655223,-104.01885,-0.8527393,2.3745956,-59.00175,-0.44260067,8.840065,-41.111797,-1.2838478,0.5092187,-7.3465676,-5.4136105,0.15111613,-5.206773,-4.7432704,16.40481,-64.41117,-5.0519886,1.9182544,-106.29034,-4.2888417,-1.3451436,-57.271713,-23.228012,17.72812,-5.8128624,8.165805,2.350721,-66.93071,-6.947028,7.966219,-100.071655,-1.7240678,-4.869361,-45.78085
39.892906,-62.7913,-29.252447,29.451963,-4.4027834,-15.3816,-6.9332857,7.0833616,-40.905144,5.90533,-5.3268924,-46.652958,4.97805,2.2171586,-54.7849,-2.8241744,0.6666175,-103.19723,-0.85976124,2.3756301,-58.491493,-0.44145313,8.804533,-40.93464,-1.284726,0.51003325,-7.9876313,-5.4161043,0.16787797,-5.519353,-4.72721,16.269712,-63.940666,-5.035141,1.9083387,-105.47904,-4.2655234,-1.3493661,-56.84266,-23.030056,17.587748,-5.7903657,8.1153755,2.335672,-66.32484,-6.9120245,7.9206057,-99.165375,-1.7129738,-4.8495607,-45.425125
40.119087,-63.154182,-29.42539,29.60516,-4.491542,-15.487318,-6.94734,7.1036797,-41.26976,5.9055147,-5.330511,-47.18376,4.988324,2.1683576,-55.104397,-2.8249996,0.66560924,-103.94364,-0.85292536,2.373251,-58.957027,-0.44317684,8.814335,-40.935863,-1.2836847,0.5090432,-7.232878,-5.399169,0.1491729,-5.1321225,-4.7381287,16.35645,-64.15184,-5.0448713,1.9133718,-105.89865,-4.2767086,-1.3487382,-57.063156,-23.149467,17.672585,-5.804896,8.151412,2.3591328,-66.5675,-6.9276114,7.9415627,-99.54415,-1.7146846,-4.865142,-45.532024
40.294853,-63.411945,-29.59997,29.71808,-4.503728,-15.534614,-6.9576836,7.11738,-41.506687,5.913394,-5.3386335,-47.437035,4.99697,2.1814184,-55.298306,-2.8254964,0.66529757,-104.165306,-0.85219514,2.3740475,-59.053455,-0.4416335,8.851189,-41.193214,-1.2838246,0.50929815,-7.3254313,-5.4124985,0.15076852,-5.182796,-4.74281,16.40929,-64.527794,-5.053605,1.9208119,-106.41299,-4.2925243,-1.342952,-57.33367,-23.233555,17.732046,-5.813631,8.163096,2.3272884,-67.06899,-6.949868,7.9709873,-100.19463,-1.725337,-4.8693175,-45.813843
40.05307,-63.041615,-29.392942,29.561033,-4.4266014,-15.433342,-6.9455547,7.097698,-41.090996,5.9168787,-5.340367,-46.826557,4.982982,2.2472744,-54.83019,-2.8248389,0.6667182,-103.19177,-0.86026937,2.3780138,-58.491722,-0.4396813,8.841043,-41.236393,-1.2854412,0.5107648,-8.547087,-5.449184,0.17902201,-5.821717,-4.731782,16.317024,-64.25973,-5.0433326,1.9140183,-105.93765,-4.2799497,-1.3449779,-57.08091,-23.112274,17.645647,-5.7981825,8.13071,2.3358395,-66.66795,-6.9326916,7.945483,-99.67566,-1.7232368,-4.853116,-45.684483
39.37092,-61.939106,-28.90992,29.085468,-4.183316,-15.122431,-6.902687,7.034609,-39.951733,5.918417,-5.3360376,-45.130116,4.955824,2.448634,-53.953094,-2.82221,0.6693951,-101.12414,-0.8795313,2.385341,-57.189594,-0.43247434,8.82509,-41.506493,-1.2893965,0.5148758,-11.819272,-5.5402994,0.2561226,-7.4757304,-4.697137,16.048449,-63.736977,-5.0162854,1.9011108,-104.83379,-4.249701,-1.3463074,-56.455883,-22.744335,17.38371,-5.7530384,8.029487,2.3013513,-65.61744,-6.8738613,7.8643327,-98.05245,-1.7095844,-4.8092713,-45.146477
39.34018,-61.911106,-28.845825,29.077173,-4.1733723,-15.114186,-6.9038925,7.035036,-39.89563,5.9228797,-5.3376446,-45.039898,4.9513974,2.4352522,-53.82206,-2.822402,0.66978693,-100.89561,-0.881307,2.3864763,-57.066967,-0.43331784,8.816132,-41.385735,-1.2892267,0.51452976,-11.641606,-5.5335007,0.25273266,-7.3986535,-4.6976824,16.043436,-63.597805,-5.0135636,1.8973808,-104.63355,-4.244025,-1.3494502,-56.366333,-22.737278,17.378801,-5.752296,8.028714,2.3123229,-65.57026,-6.87418,7.863728,-98.06993,-1.7101926,-4.808109,-45.167286
39.341537,-61.943626,-28.79509,29.099524,-4.145935,-15.106221,-6.9135385,7.0412235,-39.80934,5.9471903,-5.3468184,-44.785595,4.948948,2.4550157,-53.68213,-2.823028,0.6703991,-100.56156,-0.88604426,2.3900294,-56.793434,-0.43318224,8.82803,-41.31633,-1.2893444,0.51448804,-11.676422,-5.5350885,0.2514954,-7.385809,-4.699544,16.057945,-63.458233,-5.010826,1.8921268,-104.33361,-4.2337813,-1.3576968,-56.198895,-22.751022,17.388462,-5.7536163,8.040353,2.346184,-65.37883,-6.869669,7.855602,-97.80138,-1.7048179,-4.8124948,-45.03177
38.274666,-61.1486,-26.41755,28.888699,-3.7727978,-14.816646,-7.0041575,7.0701165,-37.311546,6.1820965,-5.4231167,-40.71612,4.758215,2.413983,-47.212875,-2.8326623,0.6874696,-89.48998,-0.98609185,2.4541728,-50.418957,-0.45272708,8.671066,-37.099358,-1.2887435,0.51030517,-9.123045,-5.456354,0.21349722,-6.4646373,-4.7150536,15.947411,-58.029427,-4.9077535,1.754338,-96.153465,-3.9887495,-1.5023974,-52.144157,-22.555904,17.247643,-5.7264853,8.096419,3.0695462,-61.748386,-6.804243,7.7377086,-95.15568,-1.691613,-4.795084,-44.4189
31.132994,-58.26258,-5.396573,29.233107,0.23258233,-12.643677,-8.230986,7.701865,-15.294491,9.440184,-6.482305,3.139867,3.6877704,2.423952,-9.129766,-2.919268,0.8049325,-19.060177,-1.6887939,2.897929,-9.673079,-0.58553034,8.016117,-9.989781,-1.2931224,0.49680948,-1.565831,-5.247866,0.011159152,-2.8940902,-5.0271664,15.846401,-9.892192,-3.9896111,0.36535677,-12.763625,-1.4526532,-3.131733,-11.335428,-22.363365,17.067505,-5.685787,10.2421,11.947914,2.4733293,-4.973795,4.9441104,-16.03622,-0.2685583,-5.433297,-8.519381
31.463303,-58.925056,-5.255173,29.65968,0.9630803,-12.393673,-8.323038,7.7773695,-14.971174,9.685087,-6.5777254,5.2095246,3.7220902,2.6073523,-9.530932,-2.9251385,0.80754864,-17.067516,-1.7253411,2.9164863,-8.297631,-0.5706205,8.240515,-11.843568,-1.2957392,0.5009018,-5.1347356,-5.4166317,0.1045548,-4.730634,-5.052258,15.909246,-10.52843,-3.9844618,0.34393066,-11.54142,-1.4220922,-3.1592777,-11.017724,-22.6128,17.24236,-5.7130723,10.345011,11.901216,3.048835,-4.94997,4.906675,-14.266319,-0.21063459,-5.474285,-7.427998
31.539484,-59.36795,-4.6348925,30.00285,1.6759312,-12.12253,-8.440343,7.852167,-13.985049,9.955836,-6.6654496,7.8644934,3.7262275,2.7182095,-9.19059,-2.9299822,0.81064624,-14.74771,-1.7606375,2.9350786,-6.6634607,-0.56417495,8.391441,-12.278313,-1.2964486,0.50216955,-6.4563327,-5.490058,0.1457006,-5.4581833,-5.0733395,16.002289,-10.227473,-3.9689348,0.31551284,-9.746937,-1.3728794,-3.1921535,-10.391095,-22.805492,17.377708,-5.732769,10.422694,11.942591,3.4246747,-4.94659,4.900352,-13.599749,-0.19197582,-5.4939566,-7.16492
31.421116,-58.826534,-4.847917,29.896257,2.5003998,-11.6275015,-8.41994,7.8319063,-13.542071,10.14805,-6.675675,10.905289,3.7415543,2.830493,-9.122388,-2.9331102,0.81697154,-10.816722,-1.8377292,2.9680638,-2.6044962,-0.55146384,8.519896,-12.115463,-1.2941985,0.49979982,-3.4390328,-5.271265,0.057815924,-3.0964892,-5.050645,15.995462,-10.148948,-3.9176543,0.27451044,-6.4498377,-1.2557788,-3.2558584,-8.548031,-22.649551,17.268784,-5.716666,10.340865,11.602022,2.5985677,-4.877301,4.84326,-11.775216,-0.11884235,-5.502822,-5.5066876
32.097412,-59.965878,-5.1292877,30.551216,3.2722116,-11.42917,-8.568654,7.9355373,-13.211803,10.456784,-6.7234073,12.935381,3.757331,3.1051497,-8.906837,-2.9390674,0.8200265,-8.935138,-1.8968999,2.9891255,0.22669256,-0.5461414,8.839079,-12.2357645,-1.2931298,0.49917626,-3.1021326,-5.2340508,0.029807568,-2.216223,-5.07146,16.445957,-10.404405,-3.9079022,0.25722098,-5.301134,-1.1969274,-3.308462,-7.801482,-23.060753,17.557209,-5.7548633,10.474398,11.508028,2.2424355,-4.8407745,4.838744,-9.9857645,-0.06745952,-5.5658197,-4.4332643
31.7791,-59.42297,-4.946042,30.366055,3.8218436,-11.063707,-8.610779,7.924099,-11.891594,10.565715,-6.709807,15.014895,3.7783608,3.3208466,-9.484948,-2.9361956,0.818578,-9.63797,-1.9050813,2.984816,0.6671087,-0.5396213,8.9202175,-12.405431,-1.2936714,0.5004746,-3.9790506,-5.2034445,0.034189835,-2.1499295,-5.052169,16.374454,-10.710845,-3.9001286,0.26338717,-5.2373657,-1.1847484,-3.3069797,-7.5854197,-22.886478,17.437588,-5.7386017,10.406727,11.268833,1.9266391,-4.79107,4.8003163,-8.695089,-0.03723918,-5.5591855,-3.6891093
31.754265,-59.437363,-4.8792396,30.38356,3.968474,-10.990401,-8.643966,7.933283,-11.452903,10.60424,-6.713252,15.48062,3.7816935,3.4011035,-9.596813,-2.9354486,0.81777817,-10.169823,-1.9036804,2.9821339,0.5428416,-0.5383517,8.949221,-12.540886,-1.2942568,0.5015613,-4.9763865,-5.236411,0.05444105,-2.582041,-5.050672,16.389383,-10.964778,-3.906394,0.27308187,-5.907049,-1.1992854,-3.2967463,-7.8662267,-22.890911,17.441597,-5.7389936,10.39899,11.221697,1.5765011,-4.795893,4.8160977,-9.049828,-0.048621595,-5.5539594,-3.9837976
31.629679,-59.240284,-4.718796,30.323303,4.1050215,-10.893896,-8.639103,7.9257946,-11.250636,10.61785,-6.7084885,15.8992815,3.7802463,3.4062102,-9.487897,-2.9355755,0.81853825,-9.512342,-1.9101424,2.9830751,0.897571,-0.5361756,8.960302,-12.544256,-1.2941414,0.5015722,-4.781401,-5.21973,0.054549992,-2.478433,-5.046805,16.341267,-10.782322,-3.8962631,0.26510984,-5.1610184,-1.18133,-3.3026557,-7.549351,-22.834927,17.401974,-5.733567,10.384555,11.1831455,1.7714536,-4.7768493,4.79463,-8.449153,-0.034230456,-5.5517416,-3.616179
31.669834,-59.19903,-4.9018097,30.29396,4.0605073,-10.906495,-8.607118,7.9135838,-11.656836,10.5760765,-6.7052135,15.402101,3.7893724,3.3881032,-9.797721,-2.9350863,0.818252,-9.647788,-1.908109,2.9820235,0.71454805,-0.53386086,8.965469,-13.03905,-1.2947228,0.5020711,-5.2393494,-5.2400856,0.066427276,-2.774871,-5.043918,16.30826,-11.108005,-3.898901,0.26837265,-5.4526005,-1.1941261,-3.2950797,-7.750604,-22.81631,17.388689,-5.730953,10.372375,11.105579,1.6359482,-4.782494,4.7950783,-8.638277,-0.033519343,-5.548277,-3.6239047
31.905067,-59.23022,-5.5993886,30.281649,3.991508,-10.937616,-8.531133,7.8888407,-12.818056,10.487037,-6.697351,14.193938,3.8248281,3.4052567,-10.853785,-2.9336715,0.81753707,-10.075484,-1.9052984,2.981597,0.47559756,-0.5232428,9.055466,-14.431433,-1.29576,0.502658,-5.729834,-5.260394,0.07315083,-3.0303497,-5.037582,16.244265,-12.279548,-3.908908,0.2785152,-6.2968645,-1.2305706,-3.280414,-8.283276,-22.812595,17.386953,-5.7291203,10.335994,10.783653,0.6680394,-4.806205,4.8065944,-9.287444,-0.024609,-5.5483346,-3.4759955
32.135384,-59.38914,-6.0470533,30.352797,3.9965506,-10.959442,-8.494443,7.8861685,-13.594462,10.460255,-6.7099977,13.602561,3.858959,3.4183702,-11.861982,-2.9329367,0.81700003,-10.478154,-1.9027368,2.9822588,0.24989301,-0.51319414,9.1581,-15.564874,-1.2964337,0.50283724,-5.858937,-5.2734118,0.07197255,-3.1092982,-5.0376344,16.220589,-13.166488,-3.9168334,0.28203008,-6.710122,-1.255113,-3.2744687,-8.6476965,-22.864887,17.424541,-5.7336307,10.324932,10.541366,-0.10901627,-4.8320255,4.820609,-9.86347,-0.0162462,-5.554468,-3.3510604
32.31355,-59.64027,-6.230209,30.46839,4.0187597,-10.9888935,-8.50897,7.9026165,-13.770255,10.486564,-6.7256823,13.584906,3.8782415,3.453194,-12.423668,-2.9328363,0.81617975,-11.128814,-1.8995159,2.9814124,-0.009014785,-0.5097422,9.219556,-16.01608,-1.2966683,0.5030521,-6.105684,-5.288557,0.07229634,-3.1733577,-5.0422697,16.267035,-13.587633,-3.9248753,0.28660065,-7.084091,-1.2681131,-3.2731967,-8.867251,-22.94891,17.484362,-5.7424736,10.346063,10.491512,-0.34344614,-4.8422513,4.829567,-9.954468,-0.011413813,-5.5657053,-3.2749424
32.72216,-59.93856,-7.034347,30.572805,3.865765,-11.109942,-8.445689,7.897378,-15.101163,10.4256115,-6.7520885,12.513357,3.933146,3.467187,-14.114998,-2.9314275,0.8152865,-11.880301,-1.8920159,2.9820077,-0.5101644,-0.49410155,9.36025,-17.887436,-1.2977679,0.50319904,-6.4239273,-5.3168545,0.071532816,-3.3616538,-5.0430746,16.205633,-15.075647,-3.9407845,0.29572555,-7.855029,-1.3105981,-3.2624736,-9.488179,-23.036499,17.546326,-5.7506285,10.332417,10.175958,-1.480581,-4.8872404,4.8543596,-10.998502,-0.0016854554,-5.5748587,-3.1219935
32.756004,-60.126747,-6.8996344,30.664446,3.923012,-11.111923,-8.49412,7.919711,-14.699251,10.478611,-6.754767,12.875953,3.9263763,3.4959621,-13.886276,-2.932081,0.8146684,-12.414143,-1.8907547,2.9805152,-0.62581354,-0.49921003,9.349777,-17.394495,-1.2973742,0.5032567,-6.501756,-5.319541,0.07019964,-3.3054693,-5.049016,16.305454,-14.848561,-3.9448967,0.29932058,-8.135627,-1.3087702,-3.2645779,-9.51002,-23.101002,17.592447,-5.758141,10.366221,10.290686,-1.2618599,-4.88098,4.8592973,-10.766475,-0.005514011,-5.5837183,-3.2292876
32.47703,-59.63251,-6.7202806,30.447691,3.9299605,-11.029593,-8.451415,7.885417,-14.576091,10.433106,-6.7345333,12.985151,3.914621,3.459896,-13.587432,-2.931144,0.8155926,-11.569904,-1.8944975,2.9805443,-0.29545525,-0.49865407,9.303212,-17.200377,-1.2973031,0.5029499,-6.1008058,-5.288444,0.06606239,-3.1610894,-5.0366373,16.18434,-14.4565115,-3.9297605,0.289514,-7.280982,-1.288634,-3.2681015,-9.122769,-22.940063,17.47836,-5.7407026,10.318902,10.258358,-0.921106,-4.8583508,4.8281236,-10.245696,0.0034124255,-5.5679245,-2.9393778
32.360115,-59.51633,-6.5141,30.419535,4.0812817,-10.936583,-8.473636,7.887661,-14.1119375,10.470921,-6.728964,13.57141,3.9104683,3.48627,-13.44255,-2.9310334,0.8154,-11.601547,-1.8969799,2.979079,-0.17807472,-0.5002974,9.2983265,-16.921839,-1.297174,0.5031667,-6.1389594,-5.277831,0.06736553,-3.1005735,-5.0341744,16.19401,-14.218971,-3.9247441,0.2876343,-7.027179,-1.2774745,-3.2703512,-8.95093,-22.908394,17.456404,-5.7377024,10.31682,10.277688,-0.684468,-4.8394074,4.814295,-9.691222,0.010016978,-5.567193,-2.7644572
32.337387,-59.53684,-6.406714,30.421246,3.9797037,-10.992892,-8.468059,7.887949,-14.201322,10.453698,-6.7301874,13.338018,3.89338,3.4276657,-12.898352,-2.9322283,0.816478,-10.85744,-1.9000413,2.9829192,0.044707596,-0.5038091,9.251081,-16.561037,-1.2968739,0.50268507,-5.7461405,-5.273929,0.063538656,-3.0308678,-5.0384016,16.193974,-13.863024,-3.9214654,0.28159392,-6.7100334,-1.2677634,-3.2755203,-8.806915,-22.91589,17.460876,-5.7386465,10.324615,10.372851,-0.5261585,-4.8472776,4.8211675,-9.98925,-5.8576465e-05,-5.564557,-3.0016093
32.687035,-59.787174,-7.083216,30.502325,3.7811568,-11.131414,-8.408574,7.8808365,-15.395326,10.378573,-6.753603,12.160836,3.9432979,3.4116344,-14.540384,-2.9305823,0.8153395,-11.901952,-1.8867933,2.9789248,-0.8007113,-0.48945805,9.354122,-18.328938,-1.2980434,0.5033157,-6.3856373,-5.3161535,0.07423782,-3.4422624,-5.0377283,16.134304,-15.212042,-3.9369116,0.29192042,-7.570863,-1.310728,-3.2599316,-9.465368,-22.990372,17.51312,-5.7453594,10.317141,10.14916,-1.3520521,-4.8837605,4.8423448,-10.89832,0.0070046186,-5.5706406,-2.9140878
32.939766,-60.07571,-7.446725,30.6182,3.712511,-11.211517,-8.400467,7.8911943,-15.929685,10.369731,-6.7691774,11.70691,3.9659624,3.4317806,-15.194618,-2.9306693,0.814944,-12.338989,-1.8838279,2.979667,-1.0359838,-0.4841085,9.420181,-19.069164,-1.2983801,0.50344133,-6.6513796,-5.3374534,0.07607858,-3.558976,-5.043351,16.150488,-15.883291,-3.9473286,0.29782712,-8.0949545,-1.3302842,-3.2567997,-9.785601,-23.080627,17.577139,-5.7551384,10.331135,10.056919,-1.8494725,-4.904993,4.8598256,-11.36209,0.010759562,-5.581584,-2.892891
33.107697,-60.059376,-8.048938,30.555944,3.4590597,-11.329723,-8.3354845,7.865431,-16.814037,10.270221,-6.754221,10.583272,3.9828243,3.4335222,-15.725708,-2.9295478,0.81478596,-12.583189,-1.8797662,2.9795787,-1.1473672,-0.47857654,9.440739,-19.669785,-1.298419,0.50297713,-6.3652835,-5.3210025,0.062066257,-3.3408833,-5.037484,16.092245,-16.59352,-3.954962,0.30715454,-8.7121725,-1.3509746,-3.250176,-10.046858,-23.053837,17.559048,-5.752922,10.300204,9.91441,-2.5110006,-4.9190073,4.8686876,-11.856694,0.015709177,-5.582834,-2.7805886
33.053528,-59.95769,-8.014262,30.539286,3.690386,-11.196904,-8.348199,7.867343,-16.52693,10.312801,-6.7569594,11.217924,3.9929786,3.493073,-15.959722,-2.9293172,0.8146084,-12.532073,-1.8851259,2.9812543,-0.87960017,-0.47551352,9.493762,-19.878862,-1.2985532,0.5029367,-6.387033,-5.3109636,0.06117314,-3.2558832,-5.0356817,16.061897,-16.819317,-3.9537807,0.308141,-8.688851,-1.351913,-3.2493596,-10.059822,-23.025112,17.540108,-5.75093,10.273018,9.753083,-3.0200195,-4.92404,4.87551,-12.056851,0.017849341,-5.5791893,-2.761159
32.853325,-59.514008,-8.044518,30.35203,3.8478682,-11.044789,-8.323811,7.839758,-16.265898,10.305746,-6.730749,11.687974,4.002395,3.508492,-16.292418,-2.9276724,0.81389964,-12.901973,-1.8863999,2.9785259,-0.75273013,-0.47516346,9.48064,-19.745575,-1.2980256,0.5021077,-5.596708,-5.243928,0.03799516,-2.62203,-5.0227003,15.990307,-16.849028,-3.9461126,0.30877328,-8.45944,-1.343103,-3.2487943,-9.861494,-22.876469,17.43708,-5.737294,10.215107,9.590419,-3.2322195,-4.9002085,4.852519,-11.488165,0.036223605,-5.572143,-2.3153572
32.610382,-59.19828,-7.727858,30.233877,3.9867337,-10.925737,-8.332402,7.829694,-15.680998,10.331031,-6.724249,12.41505,3.9971871,3.5375552,-16.202183,-2.9268544,0.8137778,-12.941439,-1.8870739,2.975371,-0.7697292,-0.47626033,9.456136,-19.612162,-1.2984945,0.5030012,-6.2481136,-5.254547,0.05495961,-2.923288,-5.016201,15.936853,-16.46979,-3.9364145,0.3025643,-7.9280596,-1.326855,-3.2513216,-9.597006,-22.779533,17.36837,-5.726858,10.206343,9.627858,-2.4583268,-4.863061,4.810074,-10.298636,0.053026125,-5.567218,-1.8706244
32.410538,-59.0796,-7.2444425,30.218134,4.1667943,-10.819802,-8.369362,7.8386574,-14.998227,10.384825,-6.7281013,13.191488,3.9776962,3.5286214,-15.604987,-2.9273963,0.8143025,-12.349282,-1.8914939,2.976317,-0.4960512,-0.47991517,9.431402,-19.039549,-1.2982935,0.5029978,-6.1283255,-5.2519813,0.060040712,-2.9618552,-5.016716,15.939503,-15.922692,-3.9286566,0.2966896,-7.475625,-1.3130809,-3.2525387,-9.410476,-22.75496,17.350588,-5.7235475,10.200971,9.688122,-2.3489952,-4.8654575,4.8198905,-10.580103,0.034803346,-5.554314,-2.268207
32.438156,-59.270638,-7.03989,30.298828,4.0482078,-10.91323,-8.389293,7.8539524,-14.950447,10.392143,-6.741045,13.029083,3.964369,3.4750786,-15.277057,-2.9281266,0.8144446,-12.414105,-1.886597,2.9749339,-0.8275926,-0.48429126,9.389364,-18.758287,-1.2982801,0.5032593,-6.4676404,-5.2859964,0.0727319,-3.3015888,-5.0236125,15.996407,-15.515551,-3.9297142,0.2925759,-7.380993,-1.3096449,-3.2551537,-9.405234,-22.822777,17.396704,-5.7292733,10.246499,9.889056,-1.6746485,-4.8642154,4.816605,-10.428283,0.027200714,-5.5583715,-2.4463878
32.503304,-59.23704,-7.305668,30.265532,3.9892888,-10.934169,-8.361349,7.841799,-15.285689,10.355333,-6.738278,12.665608,3.9803352,3.4904568,-15.825161,-2.9270499,0.8139079,-12.899795,-1.8822188,2.9725158,-1.1032538,-0.48014435,9.412082,-19.338736,-1.2987586,0.50367427,-6.894231,-5.298932,0.07944691,-3.4835217,-5.019595,15.95278,-16.003803,-3.9344022,0.29849222,-7.8010187,-1.3250432,-3.2477179,-9.633791,-22.803013,17.382885,-5.7270217,10.230565,9.788755,-1.9186707,-4.8663726,4.814173,-10.49458,0.034020856,-5.5579696,-2.306376
32.99537,-59.9561,-7.8118563,30.545895,3.6728337,-11.20836,-8.361406,7.872154,-16.318323,10.32664,-6.7618685,11.382434,3.989003,3.4651377,-15.939121,-2.9291947,0.81430453,-12.858279,-1.8803122,2.9777684,-1.2088223,-0.47788715,9.462313,-19.73048,-1.2986703,0.5033767,-6.6876817,-5.326728,0.07049441,-3.4659014,-5.036605,16.080362,-16.50763,-3.9511232,0.3042572,-8.45783,-1.3452083,-3.2508905,-9.973811,-23.031406,17.54358,-5.750745,10.297506,9.875817,-2.326903,-4.9072533,4.8559356,-11.422489,0.023049787,-5.5814095,-2.6117954
33.17646,-60.1445,-8.122685,30.605505,3.5393667,-11.303135,-8.342456,7.8728294,-16.85447,10.289638,-6.7646284,10.713342,3.9944243,3.4697862,-16.03425,-2.9296532,0.8146698,-12.646301,-1.8810276,2.9805758,-1.126414,-0.4747081,9.492815,-20.078552,-1.2988129,0.5033112,-6.675667,-5.336317,0.0683583,-3.4882774,-5.0396433,16.086155,-16.912544,-3.9579492,0.3089664,-8.855244,-1.3585924,-3.2485418,-10.175453,-23.084736,17.581276,-5.756237,10.299697,9.827796,-2.8225725,-4.9291935,4.877975,-12.094914,0.016509965,-5.5849285,-2.7872524
33.47641,-60.30989,-8.843811,30.653708,3.5134678,-11.335964,-8.302508,7.8661375,-17.690159,10.251048,-6.770429,10.084688,4.0354366,3.5461907,-17.202612,-2.9290826,0.81407535,-13.214433,-1.8808982,2.982286,-1.2303977,-0.46361277,9.606293,-21.42874,-1.2995307,0.50360376,-7.1152263,-5.3495607,0.06880157,-3.5565863,-5.0396347,16.032745,-18.225315,-3.9716973,0.32187235,-9.760713,-1.3900292,-3.2402837,-10.654764,-23.122303,17.60958,-5.762063,10.274327,9.53109,-3.964541,-4.9533796,4.8965507,-12.710304,0.031153426,-5.5947123,-2.5345037
33.467278,-60.23318,-8.943052,30.607817,3.480361,-11.337248,-8.283088,7.8551807,-17.853445,10.219989,-6.7642665,9.836032,4.03539,3.5410557,-17.21523,-2.928732,0.8143339,-12.992842,-1.8810737,2.9829788,-1.1394742,-0.46174952,9.610792,-21.518248,-1.2994146,0.50321555,-6.826507,-5.338335,0.0635944,-3.444722,-5.0363593,15.989553,-18.418098,-3.972691,0.32547158,-9.954726,-1.3982708,-3.2346592,-10.765677,-23.091522,17.588112,-5.7587585,10.245398,9.44852,-4.4965143,-4.970758,4.916383,-13.462354,0.018695638,-5.585,-2.8152404
33.20552,-59.92641,-8.549968,30.495193,3.6019032,-11.23026,-8.293774,7.8466787,-17.253607,10.242334,-6.756057,10.5012245,4.0200777,3.5279698,-16.801867,-2.9282541,0.81462705,-12.629571,-1.8832438,2.98206,-0.9521081,-0.4649162,9.567497,-20.982975,-1.2991368,0.50300115,-6.5678043,-5.3173094,0.061979115,-3.3354893,-5.0308275,15.949718,-17.865788,-3.9618468,0.3183279,-9.3655,-1.3804251,-3.237535,-10.474087,-23.000057,17.523415,-5.748883,10.224509,9.485638,-4.1599402,-4.954791,4.901567,-13.147474,0.01618345,-5.5729847,-2.8343549
33.569855,-60.297245,-9.171908,30.62348,3.4296196,-11.371634,-8.270136,7.852969,-18.128693,10.20347,-6.7669287,9.553142,4.055401,3.5464897,-17.92538,-2.9278507,0.8132425,-13.999818,-1.8735149,2.978286,-1.719609,-0.45940834,9.624418,-22.1035,-1.299914,0.50391877,-7.4904656,-5.3616953,0.07446827,-3.721917,-5.0358734,15.985771,-18.84984,-3.9791677,0.33087438,-10.410176,-1.4119023,-3.2290478,-11.004607,-23.10706,17.599108,-5.7607837,10.255522,9.414202,-4.3486047,-4.960891,4.900857,-13.000059,0.035448685,-5.5936155,-2.4739103
33.67209,-60.368206,-9.392047,30.647644,3.436292,-11.376728,-8.256627,7.850749,-18.436335,10.182262,-6.7678323,9.211561,4.0660152,3.555396,-18.240515,-2.9277258,0.8131586,-14.077239,-1.8730965,2.9784133,-1.7820199,-0.45580846,9.658476,-22.590418,-1.3001294,0.50405145,-7.677949,-5.372532,0.07959549,-3.836519,-5.0360374,15.962141,-19.381266,-3.9854853,0.33819276,-10.951622,-1.4301119,-3.219765,-11.313246,-23.124416,17.611664,-5.7628098,10.236622,9.286082,-5.0835166,-4.983738,4.927519,-13.869735,0.026505306,-5.589536,-2.7442513
33.555786,-60.25902,-9.187545,30.5932,3.3437743,-11.407579,-8.253717,7.844455,-18.289719,10.165927,-6.7611866,9.168108,4.048487,3.5142365,-17.75809,-2.927707,0.8136403,-13.717464,-1.8719902,2.9778647,-1.7322955,-0.45939007,9.604294,-22.078552,-1.2998276,0.50377756,-7.363151,-5.362441,0.07579571,-3.759274,-5.0340385,15.959211,-18.867939,-3.9792738,0.33263284,-10.538326,-1.4176801,-3.2235634,-11.092451,-23.091179,17.587336,-5.7583103,10.241433,9.413026,-4.586265,-4.9738617,4.91683,-13.618495,0.0214044,-5.5844584,-2.7936506
33.75322,-60.40674,-9.600565,30.646435,3.357231,-11.419738,-8.235503,7.8438206,-18.784687,10.143787,-6.765633,8.713088,4.0737076,3.551947,-18.518204,-2.9273343,0.8129841,-14.29466,-1.869774,2.9768465,-2.0039814,-0.45335278,9.668597,-23.016779,-1.3004663,0.50441587,-8.053069,-5.390974,0.08862588,-4.0619354,-5.035042,15.937199,-19.76573,-3.9906409,0.34390533,-11.398042,-1.445011,-3.2120607,-11.558744,-23.129444,17.614998,-5.763098,10.228389,9.229139,-5.3674984,-4.9931407,4.93647,-14.237668,0.024316564,-5.5878315,-2.8253798
33.59725,-60.112926,-9.570972,30.506716,3.3617902,-11.366259,-8.209957,7.8207445,-18.719152,10.1078005,-6.7470226,8.694645,4.0615706,3.548335,-18.13993,-2.9268253,0.8137545,-13.552649,-1.8742946,2.9789677,-1.5568466,-0.45311326,9.647022,-22.714508,-1.3000662,0.5036621,-7.363175,-5.353982,0.07544172,-3.7276454,-5.0264134,15.862461,-19.668749,-3.984856,0.34456638,-11.260787,-1.4419972,-3.208699,-11.457102,-23.026745,17.542963,-5.752214,10.1752615,9.145471,-5.8868833,-5.003738,4.9517527,-14.944313,0.008174852,-5.569169,-3.1382937
33.86732,-60.54658,-9.778474,30.702694,3.3478913,-11.444159,-8.237014,7.8503647,-18.979925,10.151044,-6.7710066,8.630203,4.076412,3.5956814,-18.455717,-2.9282217,0.81342703,-13.904621,-1.8757507,2.9819279,-1.6320741,-0.4511394,9.71075,-23.12983,-1.3005731,0.5043085,-7.978955,-5.3913803,0.082970366,-3.9734628,-5.0384407,15.956831,-19.951336,-3.9936514,0.344939,-11.451861,-1.445936,-3.2168815,-11.552523,-23.171196,17.645115,-5.767997,10.234359,9.192341,-5.649012,-5.00351,4.9461646,-14.424676,0.024305388,-5.5941076,-2.8073788
33.845272,-60.558296,-9.680511,30.711866,3.3360903,-11.454336,-8.242748,7.8533993,-18.919075,10.154814,-6.769663,8.644523,4.0682716,3.560119,-18.199816,-2.9287653,0.81376076,-13.660961,-1.8767395,2.9827602,-1.5398033,-0.4536451,9.686269,-22.799377,-1.3000158,0.5036962,-7.437941,-5.37226,0.07296863,-3.7268572,-5.0402246,15.974995,-19.721457,-3.991208,0.34217948,-11.250513,-1.4385163,-3.2199874,-11.443349,-23.178425,17.65017,-5.7691855,10.23811,9.2432,-5.630769,-5.0060587,4.9524074,-14.571982,0.019204274,-5.5934935,-2.9314857
33.984814,-60.78283,-9.775372,30.81199,3.2913287,-11.515116,-8.257489,7.869714,-19.037369,10.181055,-6.788046,8.67337,4.083197,3.57383,-18.674265,-2.9288728,0.8130892,-14.337334,-1.8721789,2.9817872,-1.9009867,-0.4520305,9.717001,-23.104946,-1.3002996,0.5040141,-7.7426057,-5.3910203,0.07405609,-3.840474,-5.046238,16.01863,-19.872437,-3.996194,0.34143937,-11.306641,-1.4412165,-3.2248082,-11.501158,-23.255764,17.704817,-5.777551,10.276775,9.292242,-5.2658777,-5.000781,4.9394064,-14.0255,0.033532605,-5.6092806,-2.6069298
33.90052,-60.713634,-9.604366,30.800297,3.4044893,-11.448649,-8.271897,7.8731604,-18.750648,10.209944,-6.7865295,9.100229,4.07129,3.5820556,-18.197979,-2.929841,0.8139524,-13.548329,-1.8808247,2.9864118,-1.353682,-0.45354906,9.716341,-22.698786,-1.2998403,0.50340605,-7.200936,-5.3662596,0.06385732,-3.5528564,-5.047182,16.019081,-19.590002,-3.9903107,0.33643633,-10.883531,-1.4265677,-3.2317765,-11.266424,-23.238247,17.692976,-5.776559,10.266032,9.285973,-5.431913,-5.0036983,4.9470205,-14.216512,0.027943864,-5.6056557,-2.7326536
33.736816,-60.53227,-9.338515,30.73538,3.4764364,-11.385845,-8.281269,7.869052,-18.345947,10.2269535,-6.7840157,9.5376425,4.0657525,3.5737195,-18.115086,-2.929031,0.81368095,-13.685599,-1.8784726,2.9835014,-1.4690541,-0.45534375,9.689997,-22.454676,-1.2998595,0.5035462,-7.2694488,-5.363165,0.067740664,-3.6092348,-5.0432305,15.999069,-19.269115,-3.9848309,0.33299324,-10.607117,-1.4195682,-3.2309492,-11.150946,-23.185883,17.655672,-5.770297,10.258512,9.319067,-5.086521,-4.991137,4.9335227,-13.89104,0.027420595,-5.5984936,-2.7152824
33.57006,-60.279297,-9.173448,30.65227,3.7340074,-11.214692,-8.286814,7.8604546,-17.92577,10.250344,-6.7747307,10.132234,4.061619,3.619152,-17.923822,-2.9288518,0.8140599,-13.138863,-1.8868467,2.9848068,-1.0331388,-0.45431,9.705246,-22.521557,-1.3001896,0.5040756,-7.692004,-5.3654156,0.082031295,-3.7936618,-5.037651,15.940138,-19.337526,-3.9796996,0.33371258,-10.575563,-1.4173326,-3.225535,-11.138385,-23.105202,17.59916,-5.7621136,10.214678,9.176379,-5.562182,-4.990571,4.940007,-14.207303,0.022613391,-5.5842524,-2.8774261
33.37013,-60.01785,-8.917377,30.550966,3.8293881,-11.126511,-8.289901,7.8499193,-17.500086,10.258744,-6.7626023,10.550012,4.0551243,3.597421,-17.833494,-2.9277494,0.81359476,-13.386912,-1.8841476,2.980486,-1.1680584,-0.45748904,9.661371,-22.174515,-1.2999291,0.50397694,-7.5588913,-5.34711,0.081706345,-3.7099955,-5.030921,15.917107,-19.005701,-3.973256,0.3317293,-10.358551,-1.4100679,-3.222387,-11.020898,-23.024055,17.54171,-5.7531576,10.194751,9.187039,-5.3041716,-4.973638,4.9254704,-13.864124,0.023250565,-5.5745945,-2.8519335
33.733154,-60.381817,-9.566066,30.6587,3.5396047,-11.323953,-8.250385,7.8491573,-18.574661,10.18164,-6.7679076,9.181844,4.075509,3.593528,-18.452812,-2.9279125,0.8132811,-13.890097,-1.8778137,2.9806206,-1.5699632,-0.4519518,9.704262,-23.0447,-1.3004755,0.5043576,-7.9525943,-5.3800745,0.08574605,-3.9402497,-5.0356474,15.932528,-19.883625,-3.9893446,0.34394652,-11.349584,-1.4419843,-3.2135267,-11.52375,-23.124645,17.612572,-5.7635736,10.211333,9.12808,-5.8528404,-5.001203,4.9496765,-14.573191,0.021605209,-5.585532,-2.9216847
33.69468,-60.373207,-9.478212,30.631432,3.3307192,-11.428231,-8.239574,7.8433867,-18.673655,10.145042,-6.760581,8.773224,4.056948,3.5326552,-17.937761,-2.9280236,0.8137665,-13.58039,-1.8746583,2.9805396,-1.5722301,-0.4560926,9.643036,-22.4404,-1.2999233,0.5036479,-7.2726674,-5.3617153,0.07236472,-3.692214,-5.0350676,15.953802,-19.376007,-3.9859009,0.3399039,-11.0411825,-1.4332224,-3.2176332,-11.33745,-23.120071,17.608358,-5.7617984,10.22483,9.289427,-5.3969426,-4.9990826,4.946613,-14.509241,0.011921361,-5.583037,-3.0500116
33.768646,-60.409653,-9.672305,30.63407,3.2804935,-11.456423,-8.225832,7.83957,-18.92093,10.126373,-6.7623987,8.525516,4.0676017,3.5483308,-18.285103,-2.9275253,0.8134651,-13.862733,-1.8720964,2.9800158,-1.7165279,-0.4530419,9.668547,-22.788052,-1.3001496,0.5037126,-7.3833575,-5.3670535,0.071912706,-3.7319632,-5.0340576,15.934769,-19.71443,-3.9903378,0.34425917,-11.344721,-1.444674,-3.2136853,-11.504949,-23.126358,17.613077,-5.7623963,10.217314,9.222775,-5.6673346,-5.00805,4.952904,-14.757482,0.011948392,-5.5834036,-3.0462036
33.765114,-60.41439,-9.638035,30.653086,3.3995821,-11.398219,-8.237081,7.845047,-18.791061,10.151964,-6.765913,8.807333,4.0703917,3.5744917,-18.304487,-2.928039,0.8136146,-13.710453,-1.8764668,2.9814796,-1.5575581,-0.4522268,9.690076,-22.927994,-1.3003063,0.50401217,-7.679132,-5.3756285,0.07931009,-3.8492439,-5.0358047,15.932814,-19.80453,-3.9897847,0.3435433,-11.312176,-1.4419601,-3.215164,-11.493859,-23.131031,17.616795,-5.763834,10.216229,9.178937,-5.7696104,-5.0056267,4.951959,-14.682949,0.017153844,-5.5856075,-2.9772153
33.521896,-60.187805,-9.177146,30.583408,3.5366905,-11.298332,-8.26271,7.8456097,-18.09758,10.195844,-6.76138,9.604675,4.054943,3.5528393,-17.883623,-2.9277194,0.81363267,-13.569876,-1.8772717,2.97971,-1.4645863,-0.45732373,9.642378,-22.22234,-1.2997855,0.5036101,-7.264007,-5.3502073,0.07369526,-3.6420162,-5.032862,15.935453,-19.103693,-3.9791539,0.3350184,-10.632957,-1.4206436,-3.2206998,-11.15179,-23.069904,17.57343,-5.7571697,10.213103,9.266872,-5.222625,-4.985084,4.933241,-14.117001,0.017294988,-5.5789557,-2.936728
33.504795,-60.197853,-9.1125,30.582788,3.4725,-11.332866,-8.262421,7.8458195,-18.101778,10.188612,-6.7611823,9.517668,4.044623,3.5337946,-17.550108,-2.9281797,0.8141765,-13.150607,-1.8788309,2.9815826,-1.29503,-0.45875853,9.623861,-21.950598,-1.2995648,0.50329256,-6.9705124,-5.343606,0.06842591,-3.5448396,-5.033775,15.9430275,-18.871817,-3.9768417,0.33199692,-10.42072,-1.4141642,-3.2244318,-11.036335,-23.073948,17.575897,-5.757157,10.218265,9.331294,-5.111702,-4.9879036,4.9363823,-14.224406,0.010870144,-5.5773797,-3.0507302
33.492382,-60.21248,-9.02514,30.625114,3.717382,-11.213741,-8.290232,7.8590355,-17.771326,10.252078,-6.772024,10.24265,4.050681,3.6033273,-17.588615,-2.9290757,0.8144864,-12.79772,-1.8881958,2.9856126,-0.88719153,-0.45630932,9.681351,-22.16618,-1.2998973,0.5037446,-7.384891,-5.353877,0.07687239,-3.6728032,-5.037091,15.940308,-19.003115,-3.9751053,0.32935187,-10.238507,-1.4069763,-3.2298903,-10.96034,-23.086449,17.585691,-5.7599072,10.216153,9.239824,-5.3239827,-4.985605,4.935069,-14.07828,0.0198033,-5.581722,-2.904797
33.46614,-60.187824,-8.998388,30.586157,3.4930282,-11.322593,-8.271619,7.849579,-17.955008,10.203485,-6.7643285,9.716424,4.037029,3.5420396,-17.26651,-2.928807,0.81472635,-12.708229,-1.8827977,2.984079,-1.0539088,-0.4593655,9.622167,-21.77759,-1.299587,0.5033324,-6.9710665,-5.345299,0.06931162,-3.564032,-5.0354595,15.94393,-18.653236,-3.9733148,0.32728368,-10.1008415,-1.4039187,-3.2306054,-10.873819,-23.074596,17.57625,-5.757309,10.225528,9.375394,-4.9064684,-4.98326,4.930373,-14.02626,0.012204915,-5.578517,-3.000764
33.36479,-59.965206,-8.998502,30.511827,3.751794,-11.153951,-8.269706,7.8402367,-17.699955,10.224464,-6.759555,10.257523,4.0459523,3.6000366,-17.490562,-2.9283082,0.81475186,-12.475798,-1.8896163,2.9854608,-0.7246151,-0.45530576,9.667435,-22.153513,-1.2998778,0.5035719,-7.2439866,-5.340046,0.0764391,-3.6262727,-5.0296426,15.868296,-19.065144,-3.971947,0.33154696,-10.304598,-1.4102685,-3.2230597,-10.997328,-23.000996,17.525507,-5.7506514,10.171239,9.145969,-5.7660036,-4.99369,4.9463134,-14.6715355,0.00817886,-5.56542,-3.1651874
33.37619,-59.92839,-9.071093,30.515545,3.9480174,-11.048255,-8.274343,7.841304,-17.618696,10.248126,-6.7609024,10.572715,4.059076,3.6386433,-17.8458,-2.928208,0.8145241,-12.571406,-1.8934904,2.9857864,-0.6292045,-0.45212713,9.711206,-22.596312,-1.3001161,0.50390345,-7.567069,-5.343613,0.0838781,-3.7168658,-5.0287027,15.840181,-19.519258,-3.9742272,0.33626044,-10.614245,-1.4188443,-3.216874,-11.175716,-22.988861,17.517826,-5.750619,10.145168,8.977884,-6.4270744,-5.0022984,4.9602003,-15.102933,0.009603336,-5.562264,-3.229743
33.12951,-59.62649,-8.706789,30.409355,4.1016207,-10.926251,-8.286983,7.834096,-17.005138,10.278929,-6.7575645,11.331374,4.055089,3.6232502,-17.858953,-2.9269657,0.8140599,-12.800158,-1.8908427,2.9819632,-0.75545967,-0.45394897,9.680774,-22.287458,-1.2998914,0.5037028,-7.3672967,-5.3229275,0.08176607,-3.6142604,-5.022043,15.7967,-19.171785,-3.9662008,0.3322136,-10.253091,-1.4096556,-3.2148457,-11.034418,-22.900562,17.455547,-5.7409697,10.119372,8.965927,-6.2476892,-4.9909496,4.949581,-14.94405,0.0068317354,-5.5493326,-3.27985
33.18376,-59.59812,-8.910554,30.403378,4.2391224,-10.849729,-8.277059,7.828826,-17.135176,10.274404,-6.752694,11.286583,4.074546,3.644565,-18.478764,-2.926161,0.81325364,-13.404255,-1.8894023,2.97871,-0.99754727,-0.45066637,9.713907,-22.930904,-1.3002461,0.5042763,-7.8874426,-5.3332005,0.09365176,-3.8024454,-5.019061,15.767895,-19.829601,-3.9722419,0.34189832,-10.92739,-1.4293413,-3.2013226,-11.391127,-22.88575,17.445728,-5.7402873,10.090486,8.779645,-6.956347,-4.9986954,4.9633656,-15.39328,0.009653762,-5.545853,-3.3319569
33.51574,-60.03438,-9.320412,30.573969,4.092347,-10.992097,-8.272225,7.845168,-17.83895,10.253086,-6.764708,10.445821,4.090722,3.6399639,-18.913313,-2.927058,0.81292033,-13.890054,-1.8857296,2.9789693,-1.3401239,-0.4483771,9.754416,-23.529406,-1.3005246,0.5046586,-8.289697,-5.366767,0.10038019,-4.019335,-5.0287848,15.835522,-20.4097,-3.9854753,0.34916168,-11.610385,-1.4495218,-3.1981905,-11.746733,-23.02121,17.541151,-5.7549067,10.129788,8.77982,-7.202802,-5.015419,4.9798727,-15.666632,0.013925701,-5.5632734,-3.3123221
33.655632,-60.278366,-9.423209,30.659311,3.8859255,-11.134949,-8.27282,7.8550806,-18.154705,10.237399,-6.7747307,9.9616785,4.0858197,3.6389656,-18.723202,-2.927825,0.8132048,-13.759985,-1.884075,2.9811118,-1.3757176,-0.44861764,9.756151,-23.492607,-1.3008475,0.504945,-8.498736,-5.39217,0.10265359,-4.191716,-5.0347767,15.886253,-20.284407,-3.9889598,0.34703076,-11.568254,-1.4491603,-3.2048018,-11.715357,-23.099182,17.595356,-5.761871,10.173567,8.920583,-6.7051616,-5.0159116,4.9734125,-15.354938,0.014715597,-5.574516,-3.2205834
33.834106,-60.366554,-9.887389,30.67229,3.8349915,-11.1678705,-8.2399025,7.845111,-18.764532,10.186812,-6.7667294,9.238563,4.103266,3.6571708,-19.23001,-2.9275,0.81285566,-14.086754,-1.8830311,2.9806397,-1.4998034,-0.44414452,9.794069,-24.182186,-1.3011731,0.5052155,-8.77633,-5.4014955,0.106764615,-4.281324,-5.033149,15.863506,-21.076387,-3.9988978,0.35912263,-12.4119835,-1.4743979,-3.1927958,-12.119807,-23.112217,17.60518,-5.763945,10.150308,8.7519,-7.549138,-5.034878,4.9960485,-16.07636,0.01345332,-5.574497,-3.3182945
33.614143,-60.1407,-9.517176,30.58893,3.8988678,-11.102422,-8.253903,7.8405647,-18.214943,10.210822,-6.7649593,9.834196,4.0898685,3.6562533,-18.896732,-2.9267354,0.8128087,-13.961776,-1.8823587,2.9790018,-1.4623985,-0.446979,9.757483,-23.739649,-1.3013142,0.50545436,-8.908842,-5.40121,0.11196324,-4.3853908,-5.028466,15.843428,-20.525852,-3.9905376,0.35255742,-11.917475,-1.4607701,-3.1954188,-11.883627,-23.04689,17.55838,-5.7555547,10.146196,8.832552,-6.964046,-5.0174174,4.975381,-15.563943,0.011326179,-5.5655656,-3.2937584
33.35212,-59.80353,-9.205022,30.432964,3.8222775,-11.087589,-8.243104,7.8216314,-17.843813,10.190478,-6.749666,10.061368,4.065696,3.6271758,-18.228756,-2.9262562,0.8134973,-13.373307,-1.8831103,2.9789488,-1.2215903,-0.45104417,9.685539,-22.962418,-1.3008986,0.5049151,-8.370532,-5.3722305,0.10186685,-4.160165,-5.0208635,15.799084,-19.751102,-3.9780502,0.34332502,-11.143442,-1.4374069,-3.2031083,-11.44899,-22.938389,17.48124,-5.743234,10.132553,8.963119,-6.235886,-4.994379,4.947841,-14.93259,0.010219589,-5.5549307,-3.1846032
33.074776,-59.477154,-8.81957,30.292625,3.814948,-11.0409565,-8.243624,7.8067236,-17.331495,10.185767,-6.7327113,10.427187,4.0427456,3.5996969,-17.611692,-2.9254873,0.81368357,-13.11865,-1.8821697,2.9763398,-1.1462038,-0.45668897,9.607575,-22.176262,-1.3006532,0.5048277,-8.150779,-5.353714,0.10062525,-4.081646,-5.0134544,15.778528,-18.9393,-3.9663057,0.33539897,-10.474817,-1.4164275,-3.2073321,-11.067114,-22.836082,17.408243,-5.731235,10.125811,9.101632,-5.367301,-4.963663,4.9151,-14.049647,0.011723593,-5.5453153,-3.039329
33.084,-59.49375,-8.842077,30.27416,3.6046283,-11.149656,-8.22799,7.800909,-17.553263,10.14661,-6.725397,9.946645,4.0323706,3.536253,-17.350233,-2.9255965,0.81397647,-13.046494,-1.8780766,2.9758792,-1.2400086,-0.45991203,9.556923,-21.704918,-1.299853,0.5037695,-7.2271767,-5.3229933,0.079616204,-3.6606076,-5.0135975,15.797174,-18.608276,-3.9646215,0.33282217,-10.24975,-1.4095964,-3.2118754,-10.917863,-22.838203,17.4094,-5.7314024,10.136858,9.223588,-5.068281,-4.9627767,4.9131823,-13.995319,0.007857934,-5.5468574,-3.0589943
33.455467,-59.804398,-9.575894,30.396303,3.6702662,-11.1577215,-8.203998,7.80503,-18.400885,10.1236515,-6.7338896,9.260412,4.0727234,3.6096723,-18.465899,-2.925654,0.8132573,-13.628513,-1.8796104,2.977753,-1.3450416,-0.44950613,9.682281,-23.145363,-1.3006207,0.50437176,-7.903806,-5.351346,0.08875929,-3.8884718,-5.0167828,15.782448,-20.149307,-3.9838884,0.35219148,-11.672533,-1.453517,-3.194983,-11.662649,-22.922974,17.470896,-5.7419815,10.109726,8.88096,-6.774338,-5.0076942,4.963999,-15.480323,0.005220875,-5.552365,-3.286594
33.48543,-59.88475,-9.548133,30.438559,3.6967874,-11.157969,-8.215656,7.813075,-18.353262,10.1417055,-6.740694,9.371272,4.072056,3.6319597,-18.390274,-2.9261312,0.8134072,-13.482402,-1.8818539,2.979295,-1.2437375,-0.44912452,9.699455,-23.198023,-1.3008851,0.5047256,-8.218974,-5.3678665,0.095787495,-4.055048,-5.019657,15.800392,-20.130714,-3.9844322,0.35082942,-11.620617,-1.4518245,-3.1977096,-11.644119,-22.951832,17.491117,-5.7447906,10.123473,8.900458,-6.664618,-5.006831,4.961858,-15.346108,0.0069339573,-5.5562572,-3.248136
35.635986,-63.082054,-13.115544,31.743435,8.360638,-9.15644,-9.008661,7.97721,-10.401875,9.936495,-6.760788,3.8353066,5.055105,5.719352,-53.214306,-2.8407435,0.67658174,-90.24766,-1.0732455,2.4332922,-51.950817,-0.28909218,10.876941,-58.89968,-1.364702,0.6158848,-90.28373,-9.124039,2.4113202,-51.22249,-4.796164,15.962992,-62.63013,-4.946659,1.7497586,-97.795166,-4.1943226,-1.2425205,-57.790905,-23.776752,18.07912,-5.795864,8.658443,3.0222528,-53.716743,-6.6816797,7.6237254,-88.51091,-1.7145449,-4.6560717,-48.236443
33.92196,-61.21363,-10.182232,31.115828,9.842334,-8.114563,-9.1189,7.9344044,-6.032869,9.990277,-6.7377996,6.9684753,5.045204,5.461399,-54.517532,-2.8295572,0.66760087,-95.07942,-0.9932353,2.355847,-56.83508,-0.2932945,10.6592865,-59.362534,-1.368333,0.6240819,-95.60857,-9.354872,2.6501756,-55.191147,-4.744481,15.556393,-62.425976,-4.940905,1.8000246,-100.41103,-4.3087687,-1.0762645,-59.974163,-23.224136,17.683977,-5.730724,8.394846,2.6908605,-55.18205,-6.7337556,7.7636666,-93.65137,-1.8781217,-4.4734516,-52.365948
32.350998,-59.8289,-6.714582,30.829424,11.857917,-6.9059563,-9.312752,7.9579115,-1.2669339,10.187997,-6.767498,11.107284,5.061143,5.118409,-56.522926,-2.8203847,0.6584202,-100.053795,-0.91164494,2.2715945,-62.28191,-0.29356688,10.521517,-60.629364,-1.3723876,0.6333849,-101.657234,-9.652759,2.9276986,-59.785645,-4.7179184,15.200405,-62.139423,-4.9310536,1.8296889,-101.86878,-4.4069424,-0.920496,-62.05979,-22.879688,17.435703,-5.6901555,8.223429,2.3604383,-55.955906,-6.769952,7.880607,-97.57507,-2.0034094,-4.3199954,-55.831356
31.12845,-58.935024,-3.7298636,30.704506,13.481365,-5.971052,-9.509052,8.002796,2.8254662,10.403881,-6.8116517,14.874686,5.064804,4.7786045,-57.862366,-2.814175,0.65129566,-103.93149,-0.84678286,2.2073565,-66.54968,-0.29955631,10.387561,-60.924393,-1.3741778,0.63902336,-105.054596,-9.842402,3.1155808,-62.72638,-4.7060747,14.991432,-61.498623,-4.923125,1.8486016,-102.7049,-4.473709,-0.80521894,-63.56839,-22.67966,17.290426,-5.6668983,8.104729,2.2089527,-56.799744,-6.825969,8.008466,-101.560486,-2.1230774,-4.199281,-59.08912
32.159107,-59.42835,-6.651596,30.61243,11.580295,-6.997877,-9.228196,7.901531,-1.9426205,9.899232,-6.6512423,7.852995,5.0627785,4.7222595,-57.383705,-2.8160253,0.6525376,-103.67049,-0.8455953,2.2230835,-66.21986,-0.30554923,10.2442665,-61.09039,-1.3717127,0.6345482,-102.173416,-9.71032,2.9915597,-60.94494,-4.711458,15.0131855,-63.010605,-4.959253,1.8822613,-105.10455,-4.5257115,-0.81492114,-64.146645,-22.754257,17.349781,-5.6795692,8.1403885,2.166915,-57.080753,-6.813799,7.96518,-100.40655,-2.0742197,-4.264236,-57.84528
32.283573,-59.92229,-6.19458,30.90327,11.910961,-6.9232492,-9.316604,7.9585123,-1.4198918,10.011344,-6.694293,8.519091,5.073234,4.670205,-57.740852,-2.817348,0.65129375,-104.45001,-0.83604497,2.216242,-67.05279,-0.3065949,10.282022,-61.51243,-1.3721706,0.6358007,-103.27661,-9.792898,3.0359573,-61.790955,-4.729976,15.109121,-63.20722,-4.9703007,1.8865407,-105.627945,-4.550602,-0.7972512,-64.71053,-22.94466,17.48323,-5.6992884,8.190087,2.1863775,-57.469948,-6.852213,8.020009,-101.619026,-2.1016643,-4.2643557,-58.704002
32.602547,-60.17064,-6.958392,30.923018,11.308578,-7.264598,-9.252695,7.9414883,-2.7167003,9.891742,-6.6589513,6.6659126,5.0615625,4.6382647,-57.232376,-2.8189752,0.65239024,-104.00908,-0.83995074,2.2254515,-66.659515,-0.31173033,10.223929,-61.110233,-1.3709658,0.6335489,-101.923325,-9.735285,2.9825413,-60.970566,-4.736562,15.164917,-63.278103,-4.9781275,1.8887373,-105.98033,-4.551166,-0.8124914,-64.65119,-23.003418,17.52671,-5.7069407,8.221825,2.2820256,-57.327454,-6.852645,8.010266,-101.24811,-2.0900857,-4.288773,-58.39267
32.709023,-60.565815,-6.6018896,31.177164,11.7549925,-7.109131,-9.336658,7.99249,-2.1104984,10.027852,-6.709202,7.786373,5.077745,4.7108474,-57.5698,-2.8202832,0.6521021,-104.10205,-0.84364665,2.2254755,-66.74172,-0.3062317,10.339889,-61.83741,-1.3721954,0.63568133,-103.63389,-9.82893,3.0355766,-61.95341,-4.7482624,15.244686,-63.63555,-4.984291,1.8900589,-106.19874,-4.5628915,-0.80504787,-64.95706,-23.156181,17.633251,-5.7221456,8.258246,2.2315445,-57.729694,-6.874382,8.043659,-101.870705,-2.1007082,-4.2922907,-58.786377
32.500538,-60.119526,-6.6582227,30.9489,11.655037,-7.0805645,-9.289337,7.9543095,-2.112566,9.964928,-6.6826177,7.6586885,5.0682383,4.7164917,-57.35636,-2.8187525,0.6524882,-103.76307,-0.84540194,2.2255802,-66.46471,-0.30634978,10.296295,-61.515675,-1.3720134,0.6352482,-103.0864,-9.785126,3.0196414,-61.593136,-4.7336087,15.151102,-63.421463,-4.9756317,1.8889288,-105.89014,-4.551194,-0.8069583,-64.68442,-22.996193,17.520584,-5.705211,8.207143,2.2033582,-57.605038,-6.8558755,8.020081,-101.52635,-2.0959334,-4.278884,-58.54955
32.676567,-60.36579,-6.8501477,31.053267,11.603382,-7.1485147,-9.293528,7.965168,-2.4238443,9.960051,-6.6829123,7.2373385,5.076645,4.722578,-57.535942,-2.8193772,0.6520605,-104.06082,-0.8433224,2.225278,-66.65703,-0.30562988,10.317597,-61.802685,-1.3720896,0.63551366,-103.342735,-9.804842,3.0249088,-61.74034,-4.7400284,15.194399,-63.75509,-4.9839625,1.8950498,-106.365036,-4.5654783,-0.80267453,-64.93954,-23.07687,17.57791,-5.714201,8.229658,2.1860578,-57.79755,-6.8643756,8.031277,-101.677536,-2.0954576,-4.2887764,-58.600838
32.68929,-60.297325,-7.0342965,30.995167,11.462844,-7.2063017,-9.266209,7.9496574,-2.709454,9.905287,-6.6630144,6.6540613,5.0707207,4.71462,-57.33727,-2.819262,0.65217835,-103.90765,-0.8431453,2.2256472,-66.60535,-0.30677357,10.288292,-61.7327,-1.3719196,0.63536656,-103.21378,-9.796816,3.0211759,-61.68597,-4.7369027,15.174881,-63.860252,-4.9863153,1.9007186,-106.68558,-4.5727267,-0.7976738,-65.03684,-23.045315,17.556194,-5.711138,8.21311,2.171518,-57.995148,-6.8672085,8.037158,-101.9264,-2.1013098,-4.284757,-58.731384
32.948837,-60.565144,-7.5164475,31.06248,11.085517,-7.4409513,-9.235327,7.9474154,-3.5551429,9.841771,-6.644988,5.4701233,5.0726757,4.6777544,-57.351677,-2.8201628,0.65202034,-104.249565,-0.8394424,2.227652,-66.76497,-0.31013772,10.254974,-61.622353,-1.3712113,0.6341182,-102.46213,-9.768287,2.989333,-61.225025,-4.744816,15.231758,-63.970215,-4.994186,1.9027886,-106.99245,-4.5777097,-0.8059268,-65.090225,-23.122616,17.61189,-5.720441,8.254591,2.2494156,-57.676296,-6.8618536,8.0227785,-101.34327,-2.0854552,-4.3081326,-58.36388
32.933567,-60.76184,-7.086568,31.205154,11.372062,-7.336072,-9.295749,7.980562,-2.9842796,9.922319,-6.672885,6.1802173,5.0818357,4.630578,-57.74974,-2.820227,0.65069216,-105.05961,-0.829558,2.2196617,-67.50792,-0.31075364,10.270903,-61.842884,-1.3714497,0.63499665,-103.06971,-9.813775,3.0187979,-61.72518,-4.7533092,15.270454,-64.02139,-4.9989066,1.9055905,-107.23848,-4.592753,-0.79116,-65.43651,-23.207466,17.67095,-5.729166,8.2734165,2.2487905,-57.896645,-6.883202,8.055896,-102.125305,-2.104313,-4.301986,-58.931595
32.94365,-60.70971,-7.2263966,31.162981,11.26379,-7.3799505,-9.276515,7.9709883,-3.1873872,9.897083,-6.665097,5.94316,5.075616,4.6357975,-57.517338,-2.8204553,0.65142906,-104.62,-0.8345727,2.2239847,-67.14254,-0.31122687,10.261858,-61.64788,-1.371098,0.63424045,-102.56303,-9.786783,3.0011833,-61.401997,-4.7513123,15.264082,-63.94654,-4.9966903,1.9033296,-107.09643,-4.5853963,-0.7982503,-65.28468,-23.184032,17.654848,-5.7268662,8.265148,2.2533023,-57.939545,-6.882924,8.052932,-102.10548,-2.102893,-4.3029494,-58.856926
32.64351,-60.444218,-6.5889606,31.106098,11.659672,-7.13883,-9.318924,7.9791403,-2.1752064,9.98068,-6.6900454,7.3730345,5.076826,4.635513,-57.715485,-2.8191838,0.6509868,-104.78133,-0.831841,2.2181058,-67.35908,-0.30952162,10.277175,-61.657906,-1.3717343,0.63529444,-103.152016,-9.809847,3.0288072,-61.7959,-4.745644,15.209574,-63.613323,-4.9867716,1.8964431,-106.51595,-4.57513,-0.79279387,-65.15251,-23.113102,17.603254,-5.718236,8.240783,2.2299678,-57.79487,-6.8783607,8.050995,-102.19492,-2.1101348,-4.283583,-59.01732
32.611855,-60.386536,-6.58395,31.075552,11.637262,-7.1400633,-9.313011,7.9743767,-2.1739721,9.970596,-6.6864095,7.3318596,5.0724735,4.631282,-57.586178,-2.819142,0.6512153,-104.61165,-0.83286655,2.21885,-67.26722,-0.31010544,10.265772,-61.555885,-1.3716552,0.6351408,-103.03611,-9.803478,3.026159,-61.74111,-4.744108,15.198065,-63.550045,-4.985505,1.896031,-106.47569,-4.57325,-0.7931199,-65.114204,-23.092453,17.58878,-5.7160416,8.232718,2.2332458,-57.825226,-6.879318,8.052309,-102.287224,-2.1130617,-4.2803907,-59.073322
32.662987,-60.582348,-6.405011,31.191662,11.772106,-7.108569,-9.348681,7.997341,-1.9546716,10.019105,-6.7047243,7.650781,5.0796843,4.610535,-57.838737,-2.8194993,0.6505068,-105.08199,-0.82792306,2.2153423,-67.66438,-0.31024584,10.283568,-61.73902,-1.3718133,0.6356095,-103.41705,-9.832407,3.0414398,-62.024834,-4.7511654,15.238665,-63.625294,-4.989585,1.8972023,-106.638596,-4.58205,-0.78709376,-65.31565,-23.168114,17.641727,-5.723892,8.254909,2.2431195,-57.900658,-6.8909054,8.069002,-102.60702,-2.119898,-4.282333,-59.31545
32.668785,-60.570324,-6.450131,31.178871,11.72406,-7.130516,-9.342016,7.9940596,-2.0317442,10.008865,-6.7007656,7.539928,5.079976,4.6021967,-57.867237,-2.8193731,0.6504158,-105.17951,-0.8267764,2.2149749,-67.70919,-0.31081533,10.274215,-61.68071,-1.3716631,0.63536274,-103.221725,-9.822294,3.0347571,-61.904675,-4.7508287,15.2375145,-63.594074,-4.989385,1.8968499,-106.608116,-4.580741,-0.7886102,-65.28345,-23.162262,17.63769,-5.723425,8.256727,2.2540264,-57.798462,-6.8869314,8.062785,-102.43486,-2.116211,-4.2843914,-59.213867
32.699257,-60.189766,-7.3175035,30.87414,10.949374,-7.4463196,-9.209373,7.9237976,-3.365943,9.809552,-6.633443,5.622924,5.0497856,4.595926,-56.843304,-2.8193886,0.65300876,-103.744995,-0.8399241,2.2296624,-66.49851,-0.3159368,10.164014,-60.675213,-1.3700682,0.6319296,-100.81652,-9.687716,2.9465978,-60.367004,-4.7372017,15.1682205,-63.193443,-4.9808474,1.8904436,-106.14396,-4.5511904,-0.8183744,-64.59939,-22.994694,17.521803,-5.706938,8.22198,2.3375711,-57.33205,-6.857649,8.010541,-101.32714,-2.0917292,-4.29429,-58.388626
32.696045,-60.549477,-6.6238155,31.13029,11.448965,-7.2641506,-9.3141365,7.9828377,-2.4025183,9.96395,-6.68905,7.016218,5.065918,4.5715685,-57.42631,-2.8199334,0.65141475,-104.72523,-0.8295674,2.2203658,-67.40066,-0.3148055,10.22361,-61.181007,-1.3710428,0.6338864,-102.302,-9.78012,3.0018902,-61.37394,-4.751914,15.239954,-63.242344,-4.9862595,1.8897703,-106.26892,-4.566203,-0.8033401,-64.99818,-23.14666,17.627405,-5.7221518,8.268115,2.3552632,-57.380566,-6.8800426,8.044876,-101.98583,-2.1085331,-4.292237,-58.967293
32.743576,-60.35444,-7.211476,30.947748,10.885802,-7.5079527,-9.227008,7.938323,-3.3576393,9.826421,-6.642979,5.5946646,5.0429697,4.5648146,-56.634922,-2.8202257,0.6531987,-103.757126,-0.83747494,2.2302122,-66.64499,-0.31943184,10.140218,-60.48869,-1.3701026,0.63175136,-100.88725,-9.701836,2.9470017,-60.469856,-4.7452393,15.204039,-62.92761,-4.9818144,1.8851817,-105.9938,-4.54695,-0.8239038,-64.554054,-23.05357,17.563236,-5.7130404,8.25866,2.450545,-56.871178,-6.857065,8.004373,-101.04375,-2.0897532,-4.302593,-58.3627
28.480856,-57.19374,2.000609,29.269651,2.4539623,-11.414873,-8.732032,7.8595743,-6.336634,10.120373,-6.6874313,12.564054,3.5038877,2.084114,-5.0987725,-2.914935,0.80353296,-17.480452,-1.6286713,2.847672,-12.983777,-0.62061113,7.6916404,-6.9677877,-1.2988893,0.50624794,-10.233128,-5.8218164,0.394588,-10.738136,-5.0451884,15.580524,-4.2384806,-3.9354851,0.32512152,-10.384101,-1.4769359,-3.0173259,-12.415646,-22.250244,16.97387,-5.6424475,10.262115,12.767032,5.326909,-5.1387887,5.1444893,-23.291313,-0.6173997,-5.1891537,-16.762
30.199419,-59.232494,-0.2743051,30.240133,2.8357077,-11.562046,-8.801208,7.9861193,-8.551963,10.425899,-6.7934637,13.588872,3.620312,2.470343,-6.9246283,-2.9283767,0.8083282,-15.070477,-1.7183381,2.9077709,-8.93023,-0.59352577,8.193586,-9.346833,-1.2977152,0.50516075,-8.500827,-5.70154,0.27907643,-8.245099,-5.0981703,16.043627,-6.6405864,-3.9458494,0.29271227,-8.597898,-1.3793831,-3.14023,-10.950239,-22.910069,17.444513,-5.726836,10.478631,12.567994,4.5794754,-5.075721,5.064776,-18.735985,-0.4137394,-5.371914,-12.400093
31.361069,-60.336018,-2.2690632,30.715502,2.7902865,-11.76385,-8.767388,8.030216,-10.844675,10.491918,-6.8258867,12.885513,3.6988688,2.6946852,-8.190752,-2.936574,0.81180817,-13.463414,-1.7738464,2.9444869,-6.262728,-0.57435006,8.494677,-10.966769,-1.2958758,0.5027284,-6.617145,-5.581412,0.18481915,-6.143671,-5.124508,16.296396,-8.369042,-3.952997,0.2762239,-7.464798,-1.3195342,-3.2197423,-9.916679,-23.24704,17.687366,-5.775568,10.592909,12.368812,4.129866,-5.014437,4.9882073,-15.145437,-0.2616999,-5.496228,-8.996496
32.360703,-61.067276,-4.40258,30.975088,2.6320124,-11.945811,-8.669688,8.027576,-13.363086,10.44552,-6.819972,11.395929,3.762803,2.8846593,-9.266835,-2.9417677,0.8148831,-12.073464,-1.8230271,2.9742858,-3.925043,-0.5567642,8.712709,-12.704854,-1.2952844,0.5017806,-5.6932583,-5.4951115,0.120706536,-4.7050166,-5.132742,16.444534,-10.392626,-3.9640634,0.27748466,-7.5377502,-1.2945336,-3.2679384,-9.459504,-23.435745,17.824066,-5.8040504,10.632256,12.042482,3.0129929,-4.9734387,4.9410315,-12.998862,-0.14872614,-5.5807624,-6.5356746
31.786936,-59.313484,-5.199519,30.238575,3.3620875,-11.268062,-8.520797,7.885706,-12.90809,10.405626,-6.6931486,13.282385,3.751233,3.1915615,-8.744968,-2.9368815,0.82048815,-8.375702,-1.9050004,2.9905562,0.80109316,-0.54273444,8.808212,-12.422056,-1.2944216,0.500667,-4.074346,-5.2346134,0.048101068,-2.5759013,-5.050105,16.273985,-10.650347,-3.901592,0.2644503,-5.5760984,-1.2004545,-3.2954721,-7.792943,-22.824287,17.390825,-5.729642,10.378412,11.329118,1.7886264,-4.8269396,4.8268495,-10.137556,-0.07277982,-5.53615,-4.46955
31.824734,-59.469906,-5.0943003,30.363111,3.8066301,-11.071243,-8.608631,7.9205446,-11.961678,10.538505,-6.7044115,14.656626,3.7743545,3.374266,-9.36201,-2.9360123,0.81844765,-9.7766695,-1.9050534,2.9844456,0.59323186,-0.53904575,8.923218,-12.733876,-1.2947446,0.501986,-5.4165072,-5.264697,0.06852755,-2.9172308,-5.051144,16.364569,-11.128747,-3.9103913,0.27686632,-6.2979326,-1.2105613,-3.290967,-8.048153,-22.886517,17.437393,-5.737967,10.393335,11.216323,1.4507909,-4.80731,4.8251877,-9.503983,-0.057293832,-5.549672,-4.204147
32.129665,-59.79904,-5.550134,30.526117,3.9114833,-11.071486,-8.618689,7.940155,-12.4166765,10.573439,-6.7172775,14.539183,3.810742,3.456695,-10.279305,-2.9357274,0.81723857,-10.472776,-1.9051259,2.985337,0.5696302,-0.5308556,9.057497,-13.501566,-1.2945,0.50151265,-5.17421,-5.24992,0.048963115,-2.5826545,-5.0557466,16.43464,-11.972314,-3.921003,0.283545,-6.7565203,-1.2270422,-3.2930932,-8.29887,-23.000587,17.52113,-5.7512074,10.406793,11.016045,0.6354684,-4.821867,4.839606,-9.606246,-0.040113136,-5.5709553,-3.8736749
31.398966,-58.659985,-4.8738604,30.061186,4.2032213,-10.744892,-8.59242,7.8818426,-11.161201,10.564616,-6.6732206,15.941576,3.7992995,3.4222617,-10.260516,-2.931596,0.8165953,-10.580688,-1.9008111,2.9736168,0.531272,-0.5322914,8.955243,-12.769448,-1.2937653,0.5009782,-4.26508,-5.157462,0.034303635,-2.0241454,-5.024213,16.2283,-11.233827,-3.8938148,0.27628374,-5.6513996,-1.1971184,-3.2846844,-7.7419705,-22.639145,17.266739,-5.71317,10.2906,10.920641,1.0027893,-4.769879,4.792137,-8.726258,-0.033070847,-5.5294333,-3.5611525
31.541988,-58.98795,-4.793984,30.23966,4.3649645,-10.719843,-8.63382,7.9125357,-11.065007,10.6262665,-6.698859,16.233786,3.8052526,3.4689417,-10.310878,-2.933132,0.8167805,-10.407105,-1.9055245,2.9759912,0.58003575,-0.5295936,9.02092,-13.252556,-1.2946771,0.50239533,-5.4676166,-5.223182,0.06677237,-2.715278,-5.0348625,16.285063,-11.462946,-3.8990946,0.2763731,-5.806426,-1.2032831,-3.2841666,-7.917066,-22.757366,17.349543,-5.725149,10.330511,10.925372,0.9823615,-4.7791815,4.80385,-8.817417,-0.03399229,-5.538603,-3.658257
31.43514,-58.84677,-4.5553937,30.230255,4.619154,-10.575912,-8.64003,7.9143906,-10.810292,10.671763,-6.713912,16.910997,3.8208237,3.448566,-10.834362,-2.9324012,0.81649697,-10.412153,-1.9054484,2.9744418,0.49404842,-0.5246887,9.065172,-13.661412,-1.2948868,0.5024463,-5.3064,-5.215622,0.069085896,-2.7132566,-5.032075,16.236086,-11.566625,-3.8926609,0.26994872,-5.334735,-1.2014018,-3.2809753,-7.893113,-22.731495,17.331308,-5.721547,10.307792,10.787677,0.7120941,-4.7873073,4.8078094,-9.082706,-0.03336017,-5.529561,-3.6744614
31.771196,-59.338467,-4.938251,30.413214,4.4325275,-10.743782,-8.635796,7.932331,-11.549932,10.641428,-6.728486,15.888852,3.8256187,3.4464545,-10.911484,-2.9338531,0.8165343,-10.616453,-1.9037927,2.977712,0.26105154,-0.52454674,9.091525,-14.169029,-1.2956358,0.50318545,-6.1811957,-5.2803545,0.089481734,-3.2726953,-5.044412,16.31125,-12.084557,-3.90934,0.27942777,-6.347765,-1.2301034,-3.2740805,-8.405767,-22.879223,17.434696,-5.736459,10.348837,10.803564,0.35644937,-4.821117,4.841386,-9.977199,-0.04822302,-5.540522,-4.1110635
31.827848,-59.144596,-5.351094,30.327261,4.463106,-10.694543,-8.564143,7.9026136,-12.305911,10.580145,-6.7209196,15.352982,3.852439,3.459826,-11.669359,-2.9326408,0.81682694,-10.252958,-1.9076713,2.979733,0.4738807,-0.5133395,9.173759,-15.219512,-1.2963566,0.50335526,-6.094819,-5.2686653,0.08547882,-3.2234752,-5.0345964,16.203922,-12.774742,-3.9060528,0.27685285,-6.144643,-1.2384686,-3.2719975,-8.448145,-22.812576,17.388165,-5.7282443,10.302622,10.514124,-0.2010997,-4.8240576,4.827353,-9.937882,-0.026804447,-5.53833,-3.6108274
32.177628,-59.14606,-6.4060597,30.28029,4.2224817,-10.809265,-8.44006,7.865711,-14.061393,10.457271,-6.731889,13.927164,3.916936,3.464499,-13.655616,-2.9303532,0.81626153,-10.740355,-1.9023654,2.9818137,0.16900921,-0.49411407,9.316605,-17.362516,-1.2975293,0.5029333,-5.9035378,-5.2618194,0.068794325,-3.080405,-5.026333,16.048605,-14.368867,-3.9151974,0.2806251,-6.447426,-1.2722692,-3.267832,-8.834428,-22.794437,17.375996,-5.725953,10.25467,10.087715,-1.2150745,-4.851849,4.8188114,-10.30305,0.0076826364,-5.5479994,-2.8341842
32.127563,-59.089302,-6.3347106,30.255651,4.22884,-10.796807,-8.441662,7.863056,-13.952868,10.456689,-6.729392,13.986518,3.9156382,3.4474509,-13.694039,-2.9297671,0.815856,-11.018886,-1.8990073,2.9794202,-0.014202654,-0.49543214,9.297638,-17.256298,-1.2974585,0.5028945,-5.8469124,-5.257771,0.06820077,-3.0642333,-5.0241747,16.04671,-14.305124,-3.9151645,0.2820906,-6.5440493,-1.275043,-3.2638376,-8.885181,-22.776447,17.363108,-5.7235737,10.248275,10.095618,-1.2120377,-4.8525696,4.8213663,-10.423313,0.0019746274,-5.5429187,-2.9592009
31.857353,-58.706875,-5.9799423,30.147831,4.647508,-10.528572,-8.469841,7.858876,-13.057809,10.530528,-6.732383,15.374838,3.9287007,3.5180967,-14.140769,-2.9283292,0.8151524,-11.209454,-1.9016856,2.9757283,0.078650475,-0.49076065,9.34219,-17.551897,-1.2980254,0.50378,-6.3514156,-5.2516336,0.08184171,-3.2202442,-5.014762,15.95985,-14.473014,-3.9074416,0.28226823,-6.352277,-1.2718569,-3.2556372,-8.8611145,-22.667484,17.28742,-5.7126274,10.194165,9.908228,-1.6431854,-4.8450565,4.8209085,-10.494185,0.0034223497,-5.525776,-2.953926
31.263845,-58.21902,-4.7521415,30.033087,5.2233353,-10.1713915,-8.574294,7.873439,-10.917602,10.674857,-6.7305646,17.683353,3.9019365,3.507239,-13.573711,-2.9267824,0.813885,-11.73444,-1.8968459,2.9642298,-0.21429485,-0.49881983,9.267038,-16.339935,-1.2974306,0.50431526,-6.4964323,-5.2364645,0.1003802,-3.3524337,-5.005185,15.967007,-13.479706,-3.8934295,0.2812044,-6.0280037,-1.2561117,-3.2397192,-8.734234,-22.544537,17.200764,-5.6986256,10.15527,9.9953985,-1.5335946,-4.8329773,4.8406096,-10.9502,-0.035574153,-5.4883003,-3.8563132
31.424803,-58.689846,-4.651229,30.218315,5.034523,-10.342038,-8.628584,7.9076195,-10.806005,10.70212,-6.732333,17.385994,3.8687854,3.513708,-12.408396,-2.9296145,0.8146802,-11.416673,-1.9000651,2.9683032,-0.028534412,-0.50954115,9.210011,-15.342031,-1.2967436,0.5043166,-6.6728563,-5.26367,0.10320125,-3.4529963,-5.021616,16.137503,-12.824022,-3.8993075,0.28069592,-6.190817,-1.2439528,-3.2525759,-8.609455,-22.694534,17.30618,-5.715075,10.240989,10.336967,-0.7310688,-4.8234057,4.842187,-10.451634,-0.043051094,-5.509233,-4.024744
31.45779,-58.58791,-4.9262257,30.147245,4.918787,-10.379837,-8.585695,7.887598,-11.256236,10.64687,-6.7184505,16.861794,3.8736877,3.5038443,-12.54601,-2.9292376,0.81491226,-11.2863865,-1.9010239,2.9692268,0.073940516,-0.50785863,9.2057495,-15.53378,-1.2967347,0.50403655,-6.38644,-5.244794,0.09339206,-3.2556908,-5.016736,16.096943,-13.005622,-3.898358,0.28102782,-6.164159,-1.2443349,-3.2537298,-8.559557,-22.649837,17.274694,-5.7105403,10.223263,10.277746,-0.78132296,-4.8167706,4.8290215,-10.205969,-0.03097099,-5.510647,-3.7204795
32.132668,-59.44193,-5.8860717,30.456738,4.5536065,-10.691946,-8.566118,7.9144316,-12.74772,10.597176,-6.7348385,15.160123,3.8974662,3.536867,-13.045785,-2.9313521,0.81475383,-11.825571,-1.900402,2.9759429,-0.085733026,-0.5050001,9.289322,-16.368074,-1.2970389,0.5040117,-6.708201,-5.288389,0.08821633,-3.3360925,-5.035481,16.240923,-14.013466,-3.9244177,0.29471803,-7.4441204,-1.278672,-3.256525,-9.109223,-22.902836,17.453419,-5.737978,10.29678,10.267117,-1.3116608,-4.8508945,4.857677,-10.663172,-0.02263552,-5.5482674,-3.6214995
32.03164,-59.43325,-5.607287,30.447607,4.4685116,-10.7357645,-8.589267,7.9204006,-12.396628,10.606841,-6.7262993,15.281008,3.8711255,3.501543,-12.257593,-2.9322789,0.8152565,-11.532872,-1.9008651,2.976058,0.011927903,-0.51319516,9.2108,-15.445503,-1.2962373,0.5034764,-6.2572155,-5.2714496,0.079630464,-3.1276503,-5.0389743,16.289368,-13.264282,-3.9186544,0.28854358,-7.0229235,-1.2574862,-3.2663074,-8.794313,-22.902351,17.45272,-5.73847,10.3244705,10.488311,-0.55944896,-4.8310614,4.8426285,-10.060446,-0.023979291,-5.5516233,-3.6096497
31.605536,-58.82334,-5.0021033,30.270786,5.022211,-10.368795,-8.60911,7.9057894,-11.310173,10.676259,-6.7248526,16.82935,3.8964083,3.446535,-13.387118,-2.9289153,0.81307656,-12.817681,-1.8892837,2.9613032,-0.7670716,-0.508949,9.216743,-15.779759,-1.29599,0.5034892,-5.9173393,-5.2275534,0.0833261,-2.960839,-5.0216494,16.171766,-13.443783,-3.9075942,0.29019332,-6.880149,-1.2642777,-3.2417846,-8.96698,-22.734016,17.334667,-5.72034,10.233909,10.213344,-1.3275616,-4.832612,4.857841,-10.792798,-0.033938125,-5.5165615,-3.9359727
31.417233,-58.802986,-4.3951716,30.312164,5.2471867,-10.260277,-8.677231,7.930581,-10.3305645,10.771748,-6.7379656,18.029524,3.872667,3.4848104,-12.565236,-2.9302912,0.81398433,-11.971436,-1.8979198,2.9637408,-0.30560648,-0.5127658,9.203556,-15.138684,-1.2959288,0.50402737,-6.361817,-5.247077,0.10035568,-3.2369778,-5.0272374,16.202503,-12.7101555,-3.8980527,0.28018627,-6.0919485,-1.2365909,-3.2522972,-8.583463,-22.747314,17.343636,-5.7221355,10.26103,10.376835,-0.68770826,-4.81408,4.846896,-10.231335,-0.037552804,-5.5153427,-3.9932585
30.66027,-57.798725,-3.3576775,29.968525,5.9108267,-9.772257,-8.7094145,7.9006376,-8.424716,10.858763,-6.728178,20.435137,3.8706815,3.4943676,-12.839438,-2.9264941,0.81300867,-12.209632,-1.8956915,2.9512067,-0.48556423,-0.51017416,9.1670685,-15.002131,-1.296534,0.50536454,-7.0631695,-5.229165,0.13168316,-3.6233008,-5.0001135,16.00737,-12.254908,-3.8738623,0.27451217,-5.29193,-1.2194207,-3.2315726,-8.350129,-22.446682,17.130417,-5.6881614,10.146561,10.212393,-0.7281007,-4.7831826,4.8297215,-10.167508,-0.047960386,-5.4633393,-4.211666
31.044216,-58.362854,-3.87256,30.139244,5.3919525,-10.118121,-8.694311,7.9176407,-9.418696,10.804748,-6.732168,19.100998,3.844483,3.5437493,-11.647137,-2.9299288,0.8154047,-10.6648855,-1.908429,2.9672952,0.4486627,-0.5137964,9.171507,-14.503229,-1.2962583,0.50457007,-6.744738,-5.24788,0.11327661,-3.4651797,-5.0183425,16.115475,-11.955585,-3.8821847,0.26959547,-5.123584,-1.2071848,-3.2600172,-8.0673485,-22.609303,17.245728,-5.7067823,10.230776,10.456069,-0.13094032,-4.7892265,4.821148,-9.662641,-0.042056695,-5.496972,-3.9614692
31.051678,-58.40519,-3.8456354,30.15463,5.370324,-10.135751,-8.702603,7.921522,-9.358346,10.809215,-6.733231,19.103363,3.8424182,3.5374453,-11.608352,-2.9299343,0.8151916,-10.850557,-1.9064134,2.966505,0.34735805,-0.5153428,9.160854,-14.362108,-1.296097,0.50442463,-6.666353,-5.2462935,0.11094599,-3.4224901,-5.019451,16.13519,-11.900473,-3.883827,0.27106774,-5.243861,-1.2087926,-3.2592103,-8.103928,-22.622654,17.255125,-5.708214,10.236022,10.490988,-0.1259433,-4.792231,4.82684,-9.78306,-0.046916753,-5.497099,-4.0763516
31.104712,-58.076725,-4.482575,29.985403,5.3318367,-10.0957155,-8.601304,7.87356,-10.352756,10.700165,-6.7067432,18.156214,3.8731847,3.5464842,-12.533284,-2.9280374,0.8151336,-10.80008,-1.9081049,2.9663477,0.45746177,-0.5042277,9.220339,-15.518039,-1.2967032,0.50448656,-6.5037155,-5.2190275,0.10212589,-3.2467663,-5.0043764,15.9948845,-12.840767,-3.8827708,0.2749629,-5.437088,-1.2251507,-3.2512746,-8.263655,-22.500492,17.170345,-5.695473,10.164898,10.130846,-0.93096125,-4.7905507,4.810563,-9.778483,-0.021290109,-5.4925365,-3.5002847
31.325947,-58.41289,-4.6673055,30.13449,5.3073187,-10.162086,-8.610102,7.893009,-10.705053,10.716966,-6.7335944,17.918467,3.8928986,3.54717,-13.14426,-2.9282167,0.8144257,-11.403446,-1.9029454,2.96669,0.06848854,-0.5005212,9.281528,-16.122238,-1.2972656,0.5047502,-6.853238,-5.2538633,0.10901615,-3.4937947,-5.0118804,16.037655,-13.342878,-3.8944411,0.2805212,-6.007477,-1.2487919,-3.2450702,-8.660125,-22.612526,17.249039,-5.706343,10.186709,10.071461,-1.3837545,-4.8246756,4.8407764,-10.630664,-0.032662764,-5.4981394,-3.8195314
31.40812,-58.440628,-4.8114796,30.168787,5.432914,-10.10582,-8.598529,7.896182,-10.935721,10.731916,-6.758246,18.079657,3.924343,3.5513892,-14.148611,-2.9274976,0.81390023,-11.717774,-1.9004126,2.9670734,-0.14889464,-0.49192593,9.366106,-17.10161,-1.2978727,0.5046431,-6.869818,-5.2612047,0.11033259,-3.5559297,-5.0129285,15.96707,-14.07688,-3.8990934,0.28274477,-6.223727,-1.2687154,-3.2371707,-8.983933,-22.628784,17.261063,-5.708477,10.156415,9.8250675,-2.3280485,-4.8619213,4.87073,-11.765143,-0.03821543,-5.4926195,-4.036652
31.742342,-58.703857,-5.5352693,30.215128,5.027955,-10.34453,-8.530937,7.8840723,-12.227695,10.637215,-6.7597866,16.660223,3.9400985,3.5370083,-14.560311,-2.9278066,0.8143648,-11.625578,-1.8995911,2.9729543,-0.1175459,-0.48795396,9.397583,-17.693087,-1.2979804,0.50377333,-6.3941336,-5.2566795,0.08947351,-3.2986524,-5.0169907,15.956541,-14.611615,-3.9080186,0.284341,-6.4609413,-1.2814034,-3.2450395,-9.09043,-22.691128,17.304817,-5.7151284,10.173589,9.780534,-2.4487345,-4.8772383,4.8654966,-11.780707,-0.02318865,-5.510601,-3.657834
31.662775,-58.55068,-5.510641,30.154917,5.120883,-10.2719555,-8.528718,7.8759995,-12.052014,10.638915,-6.7531343,16.880709,3.9431474,3.5690908,-14.66399,-2.9271886,0.8141427,-11.687724,-1.9005224,2.971399,-0.078541696,-0.48638415,9.406531,-17.837214,-1.2983073,0.50428194,-6.757077,-5.259974,0.09769245,-3.4340332,-5.012049,15.920513,-14.734293,-3.9065015,0.28669763,-6.5491047,-1.2830733,-3.2406254,-9.119203,-22.640373,17.269388,-5.7099314,10.1518345,9.71344,-2.574916,-4.870466,4.8611755,-11.702335,-0.020650193,-5.5048504,-3.5997162
31.776825,-58.243866,-6.4050937,29.934082,4.7735333,-10.38431,-8.399945,7.8146696,-13.409573,10.46554,-6.706086,15.246542,3.9578507,3.5484219,-15.076083,-2.9259691,0.8148425,-11.33817,-1.9032977,2.9740934,0.25207877,-0.48154923,9.391626,-18.398748,-1.2979032,0.50302875,-5.738298,-5.194271,0.064501405,-2.7306998,-4.997878,15.788311,-15.425885,-3.9057946,0.29174262,-6.7188225,-1.289237,-3.241311,-9.067663,-22.501217,17.17215,-5.697012,10.086896,9.491807,-3.0858762,-4.857592,4.8345633,-11.348179,0.010838971,-5.5074835,-2.8350995
31.790644,-58.261673,-6.352521,29.989355,5.1403093,-10.204187,-8.433251,7.8258114,-13.021109,10.521857,-6.714079,15.843365,3.9958966,3.5516672,-16.493227,-2.9237447,0.81195974,-13.482294,-1.888649,2.9598498,-0.92436516,-0.47793308,9.436935,-19.333263,-1.2983897,0.504343,-6.731893,-5.222187,0.0923275,-3.1756215,-4.9944086,15.786943,-16.35259,-3.9168766,0.30975547,-7.9620523,-1.327996,-3.2095764,-9.819133,-22.51646,17.183285,-5.698616,10.058162,9.265518,-4.0391474,-4.8729925,4.868526,-12.228844,0.0028537512,-5.496376,-3.2102785
31.60108,-58.239307,-5.7301736,30.03075,5.351944,-10.103218,-8.49252,7.8469715,-12.16776,10.597162,-6.718323,16.7192,3.9733083,3.4859357,-15.84137,-2.9246042,0.81208587,-13.258866,-1.8888497,2.9577794,-0.8746796,-0.48516685,9.384239,-18.331478,-1.2971574,0.5033559,-5.8292828,-5.190943,0.08260825,-2.8112853,-4.9980063,15.857346,-15.572105,-3.9091825,0.30371442,-7.4600973,-1.3105186,-3.210874,-9.602573,-22.531849,17.193874,-5.7002563,10.066848,9.396224,-3.9453924,-4.877179,4.8907585,-12.654864,-0.02065152,-5.4864216,-3.7719712
31.695606,-58.573788,-5.466983,30.217169,5.47336,-10.102945,-8.541699,7.88282,-11.956079,10.67082,-6.75182,17.1654,3.9718118,3.485691,-15.719619,-2.9264522,0.8126323,-12.896859,-1.8921359,2.9612298,-0.8538774,-0.4849553,9.424561,-18.49039,-1.2975404,0.50392586,-6.3943543,-5.24038,0.1032109,-3.26869,-5.012086,15.91095,-15.470322,-3.9109457,0.29764307,-7.2358475,-1.308574,-3.2154136,-9.648922,-22.659008,17.282537,-5.7130637,10.114283,9.464565,-3.8002322,-4.8941965,4.9068127,-12.951651,-0.029201299,-5.4933095,-4.0338297
31.307186,-58.32932,-4.4682236,30.215622,6.0519285,-9.784594,-8.63784,7.9078054,-10.277639,10.813998,-6.773303,19.142782,3.9776495,3.4696708,-16.264833,-2.924399,0.8102472,-14.469908,-1.8780274,2.9450476,-1.9399209,-0.4867834,9.414021,-18.461452,-1.2980705,0.505678,-7.668853,-5.285718,0.14876643,-4.060929,-5.0074997,15.90901,-15.195619,-3.9059815,0.3004122,-7.4001503,-1.3172499,-3.1906905,-9.958751,-22.618835,17.253286,-5.706568,10.100009,9.456875,-3.686762,-4.8904696,4.923481,-13.34559,-0.05466421,-5.4655304,-4.7122016
31.261635,-58.365456,-4.307917,30.232544,6.0334063,-9.8004675,-8.662958,7.917264,-9.975221,10.841081,-6.7729044,19.414602,3.9550514,3.505045,-15.406103,-2.925723,0.811226,-13.630721,-1.8867992,2.9508224,-1.3264778,-0.4903251,9.394447,-17.771877,-1.2978923,0.50564945,-7.5848064,-5.281113,0.14338478,-3.9709985,-5.0103645,15.964962,-14.654094,-3.9021614,0.2947472,-6.995281,-1.2968239,-3.2037477,-9.623267,-22.63247,17.263243,-5.708433,10.121466,9.606001,-3.2799306,-4.878994,4.91513,-12.92595,-0.056610554,-5.470875,-4.697958
30.93098,-57.669445,-4.2554846,29.947033,6.351425,-9.5237665,-8.614554,7.8693237,-9.680819,10.7937355,-6.7403135,19.773485,3.9665985,3.5342703,-15.905904,-2.9232416,0.81109583,-13.528045,-1.8886775,2.9443123,-1.3125484,-0.48365158,9.400738,-18.56919,-1.2987173,0.5068606,-8.4564495,-5.2831955,0.17415234,-4.416651,-4.989627,15.746645,-15.286023,-3.8941498,0.30307937,-7.3217707,-1.3119113,-3.177758,-9.876263,-22.399143,17.099026,-5.6839604,10.004881,9.245733,-4.251775,-4.8739796,4.918328,-13.556412,-0.058827817,-5.4343634,-4.8138933
30.875084,-57.931473,-3.672163,30.10336,6.4980392,-9.498144,-8.70264,7.9114084,-8.787108,10.901975,-6.776435,20.736347,3.955335,3.5404434,-15.662082,-2.9233923,0.8101165,-14.13271,-1.8817137,2.9412057,-1.7518656,-0.4877779,9.40197,-18.080547,-1.2990572,0.5075521,-9.1558275,-5.333616,0.19482848,-4.9265833,-4.997702,15.858147,-14.807079,-3.898989,0.30378756,-7.528225,-1.3175875,-3.1726038,-10.053506,-22.505821,17.172993,-5.6924357,10.04974,9.435093,-3.9759383,-4.8955307,4.949726,-14.237854,-0.094711274,-5.4279795,-5.6346135
30.949883,-57.905254,-4.062831,30.012482,5.9824867,-9.748223,-8.645517,7.8892994,-9.52335,10.81344,-6.755436,19.749578,3.9294848,3.536998,-14.645769,-2.9246185,0.8121536,-12.7181635,-1.8916668,2.9533918,-0.77646786,-0.49186876,9.344303,-17.120436,-1.2979689,0.5054913,-7.4549246,-5.260542,0.13864169,-3.9147813,-4.9978237,15.873817,-14.093735,-3.891563,0.29014546,-6.5219126,-1.2804699,-3.207026,-9.28682,-22.475704,17.152683,-5.6909456,10.074944,9.649353,-3.0530546,-4.86835,4.901514,-12.892733,-0.06939681,-5.4500446,-4.848671
31.012352,-57.88225,-4.3000393,29.977722,5.8331747,-9.817707,-8.608548,7.8767586,-9.994508,10.771323,-6.7550564,19.30997,3.939591,3.5007892,-15.017423,-2.9239237,0.8121246,-12.820996,-1.8882992,2.9543054,-0.8654851,-0.489814,9.350608,-17.306847,-1.2975669,0.50432605,-6.6023874,-5.2292614,0.1156612,-3.4900444,-4.9959,15.832426,-14.292325,-3.8923185,0.289655,-6.4751873,-1.2859528,-3.208484,-9.313319,-22.461193,17.142557,-5.6893377,10.059412,9.573997,-3.3235118,-4.882534,4.9057884,-13.250959,-0.06866129,-5.4496365,-4.806999
31.283764,-58.13698,-4.8412957,30.030798,5.434908,-10.055352,-8.56253,7.8720694,-10.993442,10.701628,-6.7525315,18.160625,3.9399543,3.5136027,-14.834362,-2.9253442,0.81320137,-12.2284155,-1.8930837,2.9626043,-0.49037433,-0.48893744,9.362707,-17.390732,-1.2975991,0.50377,-6.186818,-5.223237,0.094769225,-3.2113068,-5.003087,15.860825,-14.29943,-3.8951178,0.2833296,-6.136406,-1.2754124,-3.2299786,-9.041614,-22.52798,17.189991,-5.6974707,10.106772,9.675555,-2.6713202,-4.868675,4.870302,-12.137952,-0.038562387,-5.478448,-4.0221305
31.249033,-58.251896,-4.5634084,30.111313,5.620307,-9.982273,-8.616944,7.8939724,-10.415583,10.762095,-6.7591314,18.683659,3.9302492,3.5579457,-14.48909,-2.925995,0.8127984,-12.395837,-1.8944732,2.9606903,-0.5366089,-0.4913808,9.364598,-17.197899,-1.2981296,0.5051655,-7.271367,-5.268364,0.12320107,-3.7709959,-5.006729,15.933733,-14.166921,-3.898691,0.28792274,-6.512018,-1.2786592,-3.2236004,-9.182682,-22.574432,17.222746,-5.702058,10.127474,9.753578,-2.5951018,-4.86601,4.882512,-12.202987,-0.051044673,-5.4768577,-4.3552146
31.004469,-57.837772,-4.319389,29.97505,5.9764347,-9.738795,-8.614637,7.8752613,-9.884081,10.777084,-6.7436943,19.36751,3.949135,3.519256,-15.33837,-2.9236674,0.8112421,-13.466743,-1.886127,2.9484072,-1.1920191,-0.4894534,9.3530035,-17.651855,-1.2980735,0.50565356,-7.4827905,-5.251683,0.13802102,-3.8570535,-4.9936647,15.840082,-14.546962,-3.8935504,0.29481205,-6.812929,-1.2912954,-3.2001834,-9.455609,-22.448368,17.133709,-5.688594,10.060466,9.533312,-3.1809847,-4.858477,4.8889256,-12.56051,-0.05160442,-5.4532814,-4.4751186
31.004532,-57.839367,-4.3051662,29.97957,5.995428,-9.729948,-8.614884,7.876069,-9.878512,10.7809725,-6.747909,19.421947,3.9534125,3.514144,-15.508132,-2.9233909,0.81104696,-13.614117,-1.8843753,2.9475381,-1.3104582,-0.48862764,9.360764,-17.78204,-1.2981685,0.50566894,-7.5258164,-5.255762,0.1401413,-3.9057384,-4.9936404,15.829081,-14.627682,-3.8942125,0.295398,-6.86137,-1.2954508,-3.1976886,-9.525132,-22.450462,17.13502,-5.688506,10.057336,9.506323,-3.2686222,-4.864011,4.8933945,-12.737168,-0.05424501,-5.4510612,-4.5433598
31.40252,-58.433857,-4.640689,30.244926,6.027755,-9.808413,-8.629339,7.904929,-10.541323,10.76742,-6.767535,18.412336,3.9854147,3.4655802,-16.65549,-2.9233203,0.8089089,-15.475223,-1.8671468,2.9370868,-2.7244995,-0.48541394,9.416098,-19.090626,-1.2991165,0.5072365,-9.148101,-5.355803,0.18919648,-4.936452,-5.0057125,15.913059,-15.807723,-3.9200041,0.31774402,-8.756924,-1.3573508,-3.164124,-10.674909,-22.64407,17.270426,-5.7076335,10.091786,9.38412,-4.1856256,-4.9100604,4.953008,-14.263206,-0.074867636,-5.4550495,-5.2675605
31.923216,-58.68998,-6.023047,30.240744,5.3901005,-10.15743,-8.492317,7.8700933,-12.84507,10.595679,-6.7423105,16.085667,3.987914,3.5152688,-16.120018,-2.9270437,0.81307626,-12.695169,-1.8960608,2.9633718,-0.82686365,-0.47864684,9.475996,-19.576752,-1.298552,0.5050801,-7.440103,-5.2852736,0.12693304,-3.8104959,-5.013581,15.858191,-16.360819,-3.9191918,0.30512077,-7.9262276,-1.3291162,-3.2086186,-10.012939,-22.680786,17.298018,-5.716223,10.104431,9.287695,-4.327821,-4.9000077,4.908002,-13.118086,-0.013479367,-5.500781,-3.7853599
32.05735,-58.68084,-6.524583,30.198442,5.279251,-10.202981,-8.448219,7.8536634,-13.428577,10.548785,-6.744493,15.6356325,4.0008492,3.604184,-16.368095,-2.9266143,0.81375134,-12.1415615,-1.9033152,2.970917,-0.2993992,-0.47068328,9.546392,-20.293526,-1.2994876,0.50537103,-7.912664,-5.3005333,0.12764156,-3.9647598,-5.009674,15.78591,-17.04529,-3.925447,0.3106823,-8.325627,-1.3441541,-3.208421,-10.1757965,-22.657593,17.282402,-5.7137423,10.071878,9.10255,-5.0650544,-4.9203653,4.917554,-13.6945915,-0.012651175,-5.500042,-3.7451882
32.005043,-58.69535,-6.250344,30.254221,5.588749,-10.053782,-8.486503,7.8676987,-12.933343,10.600332,-6.762241,16.193272,4.03066,3.557167,-17.669792,-2.9240236,0.8108518,-14.333953,-1.8823835,2.9547508,-1.777597,-0.4680884,9.570082,-21.06983,-1.2998639,0.50633746,-8.854944,-5.3434687,0.16013521,-4.579602,-5.0068903,15.776075,-17.722399,-3.9361105,0.32657605,-9.528168,-1.3878567,-3.1728454,-11.019316,-22.679195,17.297146,-5.714217,10.046401,8.932457,-5.9266815,-4.952547,4.9659104,-15.188951,-0.04142168,-5.4785476,-4.5858035
31.457987,-58.165203,-5.2590637,30.081242,5.8594418,-9.842247,-8.548835,7.8686275,-11.280448,10.708577,-6.7656555,18.203455,4.007404,3.547521,-17.158735,-2.9223323,0.8103259,-14.423578,-1.8793093,2.949327,-1.748095,-0.47467217,9.495625,-19.74649,-1.299118,0.5057826,-8.080383,-5.2900167,0.14446965,-4.162399,-4.996397,15.752787,-16.417152,-3.9152188,0.31185755,-8.225511,-1.3488263,-3.1813612,-10.37052,-22.534752,17.19518,-5.6977773,10.02852,9.112858,-4.921323,-4.919133,4.9356484,-14.333649,-0.050390586,-5.458165,-4.626304
31.729177,-58.74462,-5.321923,30.309874,5.567338,-10.083666,-8.587635,7.906806,-11.531293,10.739054,-6.791239,17.821909,3.9889884,3.5727768,-16.367647,-2.9248998,0.8110928,-13.951749,-1.8830171,2.9579303,-1.4352207,-0.4795259,9.499636,-19.104116,-1.2991116,0.5055931,-8.0619955,-5.31991,0.1357946,-4.1756935,-5.01394,15.926041,-15.839333,-3.9221354,0.30492282,-7.9545126,-1.33511,-3.204423,-10.119642,-22.724125,17.328272,-5.717251,10.130442,9.440869,-3.9423497,-4.9193316,4.926981,-13.621886,-0.049542338,-5.4883337,-4.507242
31.307974,-58.172535,-4.8357167,30.081814,5.740101,-9.906999,-8.593069,7.882985,-10.645969,10.753197,-6.761239,18.714743,3.9642458,3.5697958,-15.646418,-2.924165,0.8115457,-13.369441,-1.8883476,2.955816,-0.9843207,-0.48459232,9.420393,-18.128199,-1.2984668,0.50528353,-7.4199324,-5.2630835,0.1247154,-3.7616148,-5.0007696,15.866413,-15.015069,-3.9040575,0.2970578,-7.0817604,-1.302983,-3.2089543,-9.568275,-22.54412,17.201887,-5.699066,10.08639,9.497918,-3.4307642,-4.8800597,4.8958507,-12.759249,-0.045358315,-5.4713283,-4.3049817
31.349417,-58.2521,-4.9538927,30.051943,5.2634583,-10.15651,-8.560866,7.873204,-11.170557,10.676864,-6.7397065,17.701591,3.9156575,3.55275,-13.867993,-2.9271007,0.8144988,-11.29505,-1.9026179,2.9690766,0.12263435,-0.49267316,9.3329525,-16.868256,-1.2976922,0.50420034,-6.4929194,-5.237091,0.09773526,-3.3167815,-5.0069876,15.922388,-13.8837595,-3.8943279,0.2798234,-5.921646,-1.2585778,-3.2435894,-8.743349,-22.555027,17.20912,-5.7008343,10.142889,9.85483,-1.9940543,-4.8448195,4.845647,-11.18333,-0.02763258,-5.492477,-3.6994562
31.594765,-58.569935,-5.35754,30.130085,4.9000673,-10.383586,-8.536386,7.8736925,-11.935172,10.608663,-6.727086,16.463522,3.9003904,3.541706,-13.269686,-2.9286277,0.815239,-10.959586,-1.9049555,2.973676,0.3047554,-0.49713475,9.298954,-16.557497,-1.2974814,0.5039912,-6.4426913,-5.2484694,0.09071386,-3.276317,-5.013527,16.010288,-13.754683,-3.9011786,0.28182274,-6.1756897,-1.2576677,-3.2532582,-8.694734,-22.637894,17.26692,-5.7093754,10.192689,10.031615,-1.477572,-4.8361626,4.833166,-10.618647,-0.020246,-5.5118303,-3.473629
31.500738,-58.40078,-5.330366,30.043411,4.84632,-10.382073,-8.520824,7.8590984,-11.90286,10.580445,-6.7092533,16.33887,3.8911452,3.5237117,-13.019219,-2.928312,0.81539303,-10.856808,-1.9049892,2.972196,0.35627383,-0.4998419,9.253647,-16.24846,-1.2971901,0.50385046,-6.2261295,-5.229682,0.08601936,-3.1330097,-5.00862,15.993288,-13.506766,-3.8963313,0.28027436,-5.981971,-1.2484517,-3.2547941,-8.524806,-22.577717,17.224302,-5.703159,10.183843,10.080317,-1.1424158,-4.8164306,4.8140144,-10.087183,-0.013086811,-5.5096684,-3.267085
31.857182,-58.763535,-5.9513783,30.155876,4.569214,-10.574105,-8.4753685,7.8603277,-13.046376,10.51496,-6.72269,15.111004,3.9072766,3.5245395,-13.395867,-2.9292703,0.8159237,-10.614862,-1.9063228,2.979022,0.4170614,-0.49450642,9.31267,-17.049109,-1.2978063,0.5036578,-6.334581,-5.257578,0.08348128,-3.2518928,-5.016714,15.995766,-14.188644,-3.9085631,0.28411603,-6.4648542,-1.2693801,-3.25705,-8.819424,-22.679424,17.295753,-5.7138677,10.202282,9.995161,-1.6174183,-4.8490915,4.8319097,-10.743655,-0.011348993,-5.5235415,-3.258757
32.225845,-58.920914,-6.8854475,30.172922,4.3220925,-10.717566,-8.389558,7.8397675,-14.483504,10.416718,-6.728272,13.797052,3.9524937,3.5336785,-14.740556,-2.9284453,0.8157838,-10.981205,-1.9034092,2.982308,0.25077242,-0.48233292,9.410146,-18.55775,-1.2982141,0.50297105,-6.0649133,-5.2490873,0.066010565,-3.0249646,-5.0161424,15.907921,-15.529305,-3.9206297,0.29134554,-7.0823145,-1.2985998,-3.2546093,-9.214204,-22.709084,17.317753,-5.718416,10.174574,9.694779,-2.674352,-4.8784566,4.8418355,-11.380272,0.011160806,-5.536886,-2.8280602
32.02317,-58.607353,-6.6710014,30.064322,4.5465426,-10.555338,-8.39172,7.827363,-14.0172,10.437047,-6.720228,14.447479,3.9579768,3.546884,-15.003551,-2.9271717,0.81530267,-11.198755,-1.9027576,2.9778454,0.16712719,-0.48076448,9.4099655,-18.710737,-1.2984387,0.5034838,-6.338366,-5.2425714,0.07637787,-3.1345687,-5.0075912,15.837795,-15.588716,-3.9144678,0.29203892,-6.99152,-1.2982874,-3.2457933,-9.220974,-22.61301,17.250105,-5.7080526,10.134275,9.58064,-2.8334322,-4.867978,4.835611,-11.324604,0.012694061,-5.522391,-2.80476
31.872444,-58.56015,-6.169613,30.10457,4.851632,-10.4021225,-8.442738,7.846813,-13.239322,10.526055,-6.747628,15.5923605,3.968167,3.542573,-15.496241,-2.9261603,0.8143746,-11.800582,-1.8962442,2.9721465,-0.33007282,-0.47889635,9.440315,-18.976004,-1.2987102,0.50400954,-6.858375,-5.2693877,0.09665952,-3.529112,-5.008792,15.810759,-15.617781,-3.9127724,0.2909091,-6.9687853,-1.3059237,-3.235025,-9.430146,-22.621685,17.25561,-5.7076015,10.125368,9.517645,-3.0785084,-4.885223,4.857316,-12.055409,-0.0053274482,-5.507516,-3.2935715
31.914232,-58.45589,-6.4476395,30.06237,4.978791,-10.318115,-8.420752,7.834937,-13.441944,10.512763,-6.740022,15.564933,3.9888518,3.582512,-16.093637,-2.9254956,0.8140668,-11.987521,-1.8987639,2.971908,-0.2510302,-0.47311807,9.492683,-19.625463,-1.2988994,0.5041035,-6.9177732,-5.2565556,0.09539677,-3.4402301,-5.003892,15.750296,-16.318163,-3.9158652,0.29846638,-7.3985815,-1.3197949,-3.2264607,-9.6537285,-22.581139,17.228386,-5.7048845,10.081507,9.279905,-3.973433,-4.8950434,4.8709755,-12.556002,0.0004554987,-5.503639,-3.2378492
31.829458,-58.690815,-5.7956004,30.204443,5.04093,-10.334066,-8.498695,7.874278,-12.654416,10.60725,-6.7703414,16.381746,3.9660292,3.536404,-15.462531,-2.9265046,0.8139805,-12.0004425,-1.8945708,2.9713638,-0.45825052,-0.48024735,9.457058,-18.719427,-1.2984279,0.50376135,-6.7143145,-5.274662,0.097912624,-3.5322676,-5.014744,15.861916,-15.42994,-3.9139829,0.29032165,-6.9651737,-1.3075423,-3.2323787,-9.518527,-22.682602,17.298677,-5.7137156,10.137204,9.5444,-3.3431234,-4.907761,4.889246,-12.861993,-0.028513655,-5.5018415,-3.8715472
31.928005,-58.662067,-6.122545,30.18236,5.0329523,-10.331629,-8.463256,7.861622,-13.117142,10.572434,-6.7705016,16.026203,3.9941702,3.5210404,-16.438448,-2.9251757,0.81316984,-12.75723,-1.8882031,2.9676216,-0.9112263,-0.474639,9.493023,-19.57183,-1.2985712,0.5036588,-6.7426033,-5.270379,0.09629685,-3.507998,-5.0110817,15.798866,-16.163702,-3.9188752,0.29640073,-7.4132605,-1.3270599,-3.2226784,-9.833877,-22.666767,17.287743,-5.7124004,10.110097,9.354758,-3.921573,-4.9179173,4.8944645,-13.224396,-0.01854825,-5.501229,-3.7238898
31.794548,-58.16625,-6.451878,29.958105,5.2159653,-10.151385,-8.4071245,7.8195086,-13.253813,10.516912,-6.7399035,16.0041,4.012002,3.5845344,-16.979338,-2.923412,0.8131385,-12.596753,-1.8945589,2.9671402,-0.5621862,-0.46673363,9.531387,-20.321444,-1.2990052,0.50400853,-6.92061,-5.2409577,0.097070664,-3.428469,-4.994026,15.634262,-17.03189,-3.917346,0.30746502,-7.9641724,-1.3424165,-3.2068472,-10.064309,-22.488602,17.16412,-5.695627,10.004277,8.974724,-5.255527,-4.9234247,4.9062185,-14.002076,-0.015211597,-5.4801235,-3.7201781
31.8908,-58.604126,-6.0771585,30.170303,5.1302195,-10.274168,-8.472049,7.862816,-12.930924,10.593229,-6.773264,16.342417,4.0021453,3.5303674,-16.732296,-2.9245067,0.8125819,-13.130258,-1.8861511,2.9656873,-1.0373822,-0.4733002,9.509001,-19.65699,-1.2985073,0.5035469,-6.6193275,-5.2590466,0.09190796,-3.4014695,-5.008851,15.788435,-16.302814,-3.9194784,0.29885107,-7.547161,-1.3317019,-3.2186651,-9.920602,-22.65179,17.277834,-5.7110815,10.094481,9.2853,-4.2291093,-4.9241533,4.9037733,-13.522898,-0.022312567,-5.4969187,-3.8338237
32.226284,-59.032818,-6.4847775,30.362755,5.1797647,-10.316687,-8.475013,7.8834677,-13.552203,10.597028,-6.7851963,15.781923,4.0178227,3.573637,-16.978098,-2.9268262,0.8131714,-12.827515,-1.894612,2.9710414,-0.8412843,-0.4687853,9.5879135,-20.548544,-1.2992253,0.50464606,-7.5832,-5.310929,0.11487133,-3.8805463,-5.02142,15.834257,-17.08081,-3.9305754,0.30450392,-8.143199,-1.3465276,-3.2178633,-10.241545,-22.786999,17.373522,-5.727102,10.124181,9.182658,-4.7915916,-4.93937,4.922375,-13.822457,-0.011016071,-5.515576,-3.739369
39.921967,-68.233444,-19.036203,33.45955,1.7708411,-13.351432,-8.466428,8.100288,-26.077879,9.740616,-6.7922573,-5.7909465,4.7892823,5.5250344,-40.16757,-2.9028125,0.7414595,-58.856716,-1.4731371,2.7566266,-28.476511,-0.35081148,10.921772,-46.40916,-1.3392494,0.56839186,-54.081566,-7.5493155,1.1408352,-27.620005,-5.0812545,17.219532,-44.965412,-4.599848,1.0382332,-55.481346,-2.7657542,-2.4929838,-33.23772,-25.396366,19.218893,-6.002651,10.621655,7.7785873,-16.343853,-5.3753834,5.545759,-24.859642,-0.1800999,-5.738171,-9.335039
42.34568,-68.613976,-28.217815,32.52273,-1.8533242,-15.03602,-7.8149796,7.697956,-34.937412,8.046238,-6.259777,-25.935225,5.183819,7.061991,-53.18852,-2.8641887,0.69192123,-90.08919,-1.1545942,2.5547833,-48.14413,-0.28054827,11.109932,-62.6946,-1.3695799,0.6182593,-89.85069,-8.974758,1.9440105,-45.588516,-4.9372787,16.752335,-62.93158,-4.986127,1.5915152,-88.92745,-3.7377257,-1.8965669,-48.178802,-25.041977,18.970745,-5.963082,10.366527,6.3047557,-20.303564,-5.287685,5.548422,-23.874897,-0.1872096,-5.7122517,-9.352649
40.72444,-64.58518,-29.587389,30.355246,-3.211002,-15.0059185,-7.2406664,7.2736063,-37.101154,7.010504,-5.855484,-33.098236,5.1427336,7.0064626,-53.465706,-2.843278,0.6864023,-93.86662,-1.0787284,2.479596,-51.910286,-0.27960533,10.553715,-64.08922,-1.3745589,0.62518865,-95.84112,-9.050449,2.0940766,-48.72874,-4.803362,15.654797,-63.648746,-4.964881,1.6502203,-92.18678,-3.839696,-1.7674447,-49.261925,-23.559196,17.923246,-5.8028064,9.964728,5.7460613,-17.139969,-5.0072985,5.2215595,-17.157303,-0.0805642,-5.5922856,-6.166447
41.325485,-65.20125,-30.688595,30.47989,-4.175641,-15.589955,-7.1394277,7.251479,-39.58495,6.6593056,-5.7484636,-38.47893,5.1757555,6.9325314,-54.73499,-2.841185,0.6806037,-98.97123,-1.0129075,2.432702,-56.384033,-0.28399643,10.424774,-66.121254,-1.3776221,0.63065696,-101.57868,-9.3113575,2.2224696,-51.824,-4.830058,15.64398,-64.41066,-5.001878,1.6694005,-94.49386,-3.906324,-1.7427391,-50.401646,-23.72625,18.043005,-5.8288546,10.201525,6.1131763,-12.3387785,-4.821626,4.984523,-9.182047,0.086121514,-5.6951256,-2.3410058
40.53363,-63.58058,-30.63769,29.693115,-4.402108,-15.433179,-6.9698157,7.1124864,-39.69598,6.3305,-5.602764,-40.466286,5.1552076,6.7387495,-54.831043,-2.8341887,0.6783172,-100.21595,-0.9817633,2.401014,-57.90558,-0.28699958,10.192303,-65.695755,-1.3765749,0.6299626,-100.60352,-9.221572,2.2233505,-51.578667,-4.7801275,15.265951,-64.39437,-4.989292,1.694444,-95.46578,-3.9399009,-1.6846095,-50.84843,-23.173233,17.654943,-5.7720814,9.991249,5.8241286,-12.858993,-4.7885733,4.969427,-9.830525,0.06165637,-5.6195965,-2.781914
40.398193,-63.28722,-30.660017,29.510515,-4.7318516,-15.555984,-6.9097447,7.0737057,-40.150925,6.1382127,-5.532592,-42.519276,5.1547966,6.6033483,-55.148647,-2.8316257,0.674966,-102.36423,-0.9433808,2.3725872,-60.185673,-0.29257956,10.042633,-66.04668,-1.3777537,0.63228065,-102.26431,-9.297821,2.2785914,-52.732204,-4.7772117,15.142546,-64.38973,-4.9985485,1.7084335,-96.4127,-3.9750395,-1.6516583,-51.40867,-23.068867,17.5819,-5.764214,10.006833,5.923188,-11.367825,-4.727952,4.9002237,-7.8374267,0.09592895,-5.6235943,-2.0289497
40.63096,-63.704014,-30.793293,29.666191,-4.9154167,-15.720264,-6.9228916,7.0922365,-40.52471,6.0860605,-5.520498,-43.696053,5.1717634,6.5330925,-55.761562,-2.8315604,0.67137706,-104.39634,-0.91537654,2.356602,-61.93452,-0.29583168,10.01338,-66.49336,-1.378746,0.6344763,-103.18722,-9.36708,2.3108807,-53.41116,-4.7902503,15.195946,-64.83748,-5.021311,1.728544,-97.70481,-4.0200157,-1.62587,-52.15565,-23.199947,17.673689,-5.779843,10.058548,6.0003605,-11.125881,-4.733613,4.910661,-7.780837,0.09705739,-5.639529,-2.1153493
41.01271,-64.40581,-30.958391,29.955063,-5.1496773,-15.959047,-6.9547043,7.1322646,-41.085136,6.06763,-5.5243998,-44.88306,5.1843085,6.486869,-56.099785,-2.8331447,0.6691345,-105.97572,-0.89466166,2.3461335,-63.35905,-0.30037034,10.003285,-66.94249,-1.3797852,0.63648486,-104.53405,-9.45885,2.3448002,-54.22802,-4.8156796,15.313158,-64.97489,-5.0403423,1.7329358,-98.33365,-4.0411625,-1.6239408,-52.54409,-23.430134,17.835432,-5.806329,10.18386,6.218527,-9.842901,-4.708139,4.874331,-6.0818715,0.13386016,-5.684517,-1.3636348
41.348,-65.00641,-31.14117,30.194624,-5.3803396,-16.177557,-6.978368,7.1643004,-41.61534,6.039317,-5.524334,-46.043694,5.1958923,6.4522657,-56.40922,-2.8342931,0.6669187,-107.45812,-0.8746262,2.3358598,-64.698456,-0.3043075,9.989982,-67.39545,-1.3808143,0.63842773,-105.93055,-9.547894,2.379723,-55.061756,-4.837316,15.406481,-65.157234,-5.058848,1.7394779,-99.02795,-4.064166,-1.6191669,-52.949497,-23.62413,17.971836,-5.829027,10.291507,6.407526,-8.709291,-4.684346,4.841023,-4.554508,0.1662683,-5.723521,-0.6971005
41.523132,-65.21354,-31.419418,30.262255,-5.506549,-16.273281,-6.971443,7.1671877,-42.018005,6.0022354,-5.513137,-46.779327,5.206909,6.4430294,-56.75499,-2.8342307,0.66559875,-108.27696,-0.86623514,2.331633,-65.244064,-0.30431074,9.997223,-67.62856,-1.3807316,0.6386848,-105.90251,-9.554678,2.378724,-55.059467,-4.841007,15.441597,-65.59838,-5.071134,1.7526487,-99.83533,-4.087994,-1.6078696,-53.3382,-23.684551,18.014877,-5.8364635,10.301174,6.379077,-9.060765,-4.696754,4.8596983,-4.9337015,0.16112287,-5.729926,-0.83730245
41.414154,-65.02928,-31.343904,30.194033,-5.390012,-16.182493,-6.9697227,7.15971,-41.770878,6.0260506,-5.5202794,-46.221592,5.205239,6.4747715,-56.688087,-2.833883,0.66631114,-107.74159,-0.8738808,2.3360004,-64.74363,-0.30183858,10.015928,-67.58098,-1.3806814,0.6383481,-105.719284,-9.537806,2.3738523,-54.928127,-4.833806,15.41037,-65.60282,-5.065919,1.751428,-99.651825,-4.0824304,-1.6084554,-53.238422,-23.625523,17.973345,-5.829358,10.264249,6.30628,-9.51063,-4.7086296,4.874867,-5.5554905,0.14785679,-5.715889,-1.1252803
41.500496,-65.19565,-31.353792,30.280159,-5.3310385,-16.180635,-6.9876018,7.174403,-41.754776,6.060857,-5.535049,-46.018635,5.208439,6.4954844,-56.719894,-2.8346872,0.66659504,-107.59151,-0.8780157,2.3390286,-64.56595,-0.30075026,10.049953,-67.68347,-1.380827,0.63856536,-105.790794,-9.547721,2.3760405,-54.95655,-4.83791,15.45265,-65.705124,-5.0679293,1.7512972,-99.68495,-4.0828857,-1.6108775,-53.266106,-23.683987,18.014513,-5.835133,10.277555,6.3037624,-9.712969,-4.7203903,4.8895826,-5.873355,0.14333488,-5.719615,-1.2656486
41.33358,-64.83913,-31.374025,30.113724,-5.348157,-16.128336,-6.955147,7.146609,-41.720226,6.026163,-5.5164027,-45.980537,5.2008085,6.4935627,-56.548325,-2.8336346,0.6673609,-107.14186,-0.8829287,2.3408844,-64.174515,-0.30032375,10.023735,-67.42303,-1.3801159,0.63737583,-105.10551,-9.499517,2.3563418,-54.54125,-4.8264647,15.386148,-65.58919,-5.0597296,1.7492609,-99.445076,-4.0734963,-1.6121309,-53.083954,-23.563099,17.929874,-5.822216,10.228427,6.2344084,-9.946158,-4.715705,4.8854294,-6.0391893,0.13862182,-5.7047634,-1.2994684
41.38092,-64.90792,-31.426472,30.144781,-5.35069,-16.140156,-6.9580774,7.1509376,-41.786976,6.0352936,-5.521307,-45.962475,5.1990194,6.522428,-56.408707,-2.8342495,0.667984,-106.81849,-0.8879572,2.3442554,-63.91622,-0.29969215,10.038401,-67.488014,-1.3803118,0.6375358,-105.401695,-9.512784,2.36145,-54.663895,-4.8288584,15.401039,-65.587006,-5.059277,1.7466857,-99.34534,-4.0686297,-1.6176436,-53.008354,-23.585445,17.94582,-5.8246794,10.242338,6.254676,-9.802431,-4.7104874,4.87771,-5.7430744,0.14515628,-5.7107067,-1.1439297
41.211426,-64.6284,-31.316135,30.016697,-5.331642,-16.084093,-6.941583,7.1319103,-41.59371,6.00807,-5.5065675,-45.902298,5.190542,6.510332,-56.21293,-2.833392,0.66800743,-106.60719,-0.88729924,2.3423638,-63.86176,-0.3004655,10.004065,-67.31276,-1.3804055,0.63772,-105.32627,-9.502817,2.3651552,-54.671864,-4.820241,15.341927,-65.48404,-5.0553856,1.7492865,-99.35239,-4.0697713,-1.6097271,-52.998547,-23.490868,17.879019,-5.814209,10.20203,6.220345,-9.9887905,-4.7114625,4.883309,-6.1176987,0.13351484,-5.6938024,-1.3923972
41.470505,-65.10528,-31.406761,30.235058,-5.304578,-16.150808,-6.978941,7.165167,-41.724983,6.0398693,-5.5249333,-46.13594,5.2096853,6.5014567,-56.782555,-2.83418,0.66609687,-107.693,-0.87663513,2.3369763,-64.636154,-0.299734,10.049732,-67.775665,-1.3810213,0.6391219,-105.808136,-9.549952,2.3838365,-55.020527,-4.8321075,15.435484,-66.01559,-5.072629,1.763528,-100.276985,-4.1011214,-1.5946947,-53.554253,-23.650745,17.991407,-5.8313775,10.239243,6.216838,-10.471422,-4.742525,4.925576,-7.0122795,0.1192082,-5.703728,-1.8563926
41.70295,-65.55078,-31.455912,30.44719,-5.228902,-16.187195,-7.0196342,7.1997156,-41.766144,6.092333,-5.552414,-46.062473,5.226262,6.516561,-57.21808,-2.8352628,0.6649429,-108.31092,-0.8720468,2.3357885,-65.03875,-0.29786927,10.110519,-68.21735,-1.3817103,0.6403564,-106.335754,-9.596413,2.4016583,-55.362278,-4.84344,15.521877,-66.4568,-5.0860953,1.7728474,-100.90508,-4.1233625,-1.5862055,-53.95627,-23.80156,18.097366,-5.8473077,10.2743225,6.2106514,-10.925803,-4.773227,4.9642153,-7.8416295,0.106397495,-5.71306,-2.268166
41.482986,-65.1822,-31.299135,30.290316,-5.1659946,-16.094847,-7.0012712,7.1780796,-41.49128,6.083489,-5.542587,-45.677822,5.219392,6.490613,-57.124744,-2.8341086,0.6653806,-107.96672,-0.8746914,2.3362164,-64.75858,-0.29792297,10.083767,-67.865555,-1.3810242,0.6392386,-105.43166,-9.542597,2.3803034,-54.876415,-4.832039,15.455517,-66.22722,-5.0763454,1.7691654,-100.52408,-4.1127057,-1.5861734,-53.758503,-23.681698,18.012796,-5.8338604,10.22067,6.1428585,-11.236253,-4.7769284,4.970002,-8.33177,0.09448378,-5.693346,-2.4917507
41.16275,-64.631615,-31.112123,30.051655,-5.0515003,-15.944129,-6.9723024,7.1439276,-41.079113,6.066165,-5.5276976,-45.118298,5.205182,6.4919577,-56.770145,-2.8327568,0.6664357,-107.038246,-0.88312835,2.3393426,-64.08121,-0.29693294,10.055292,-67.47293,-1.3806535,0.6385016,-104.66914,-9.490722,2.3668447,-54.48336,-4.8137426,15.349453,-66.03405,-5.0641108,1.7686394,-100.196014,-4.1034374,-1.5807354,-53.55741,-23.498245,17.883408,-5.812998,10.130472,6.020281,-11.952561,-4.7902374,4.991413,-9.43113,0.0675963,-5.658534,-3.0474896
41.173744,-64.6886,-31.056835,30.07541,-5.0983725,-15.978953,-6.9759336,7.148492,-41.114105,6.0644474,-5.528099,-45.225048,5.200917,6.480522,-56.625916,-2.8331625,0.66663253,-107.02495,-0.8817457,2.338705,-64.18187,-0.298662,10.038302,-67.42384,-1.3808298,0.6386828,-104.97926,-9.506192,2.3727555,-54.6517,-4.818437,15.355703,-65.79325,-5.0619955,1.761739,-99.890686,-4.0941143,-1.5883476,-53.41055,-23.518421,17.897339,-5.815444,10.1618185,6.106184,-11.2646675,-4.769141,4.9614058,-8.476032,0.08614965,-5.6698503,-2.6107602
40.62426,-63.86941,-30.487223,29.756323,-4.739876,-15.6640415,-6.962243,7.1121826,-40.05929,6.101138,-5.5291777,-43.615166,5.182928,6.4673033,-56.243214,-2.831214,0.6680959,-105.61811,-0.8946737,2.343052,-63.166466,-0.29631585,10.014497,-66.832565,-1.3804817,0.6378275,-103.777054,-9.43218,2.3570392,-54.09112,-4.791792,15.205963,-65.38637,-5.0405474,1.7568693,-99.12961,-4.0764256,-1.5797284,-53.07704,-23.257854,17.712875,-5.784621,10.022784,5.912457,-12.510097,-4.8033504,5.0107408,-10.677499,0.03498681,-5.6106615,-3.7633605
36.484818,-57.59453,-26.53031,27.03599,-4.3664913,-14.470449,-6.6343784,6.748947,-35.468143,5.774299,-5.310356,-39.085724,4.9073725,5.8128495,-49.348076,-2.8190691,0.6836163,-94.4865,-0.95253855,2.3536224,-57.51756,-0.3320487,9.156807,-58.880344,-1.37305,0.62393653,-92.94648,-8.779101,2.1469884,-48.899704,-4.6475954,13.958593,-56.957493,-4.823251,1.5953242,-87.39109,-3.7442746,-1.6682711,-47.129074,-21.222897,16.272299,-5.5591674,9.424555,5.9876556,-8.945998,-4.5965295,4.745716,-8.003877,0.021456972,-5.3659635,-3.0523043
28.804342,-52.821316,-6.7010274,26.379406,-1.0814998,-12.334151,-7.518777,7.167588,-16.841148,8.276283,-6.074745,-2.9940705,3.658977,2.7539933,-9.63443,-2.8912847,0.80153334,-20.293129,-1.6230088,2.8266268,-12.381291,-0.5519073,7.6301503,-13.650051,-1.304423,0.510965,-13.003107,-5.5111217,0.29548034,-8.936104,-4.8382072,14.197229,-11.040602,-3.9422293,0.41547555,-14.262675,-1.5401194,-3.002464,-11.693722,-20.372627,15.653966,-5.462526,9.679559,11.110052,7.035619,-4.6048856,4.46486,-6.1874437,-0.097035035,-5.270539,-3.3271036
30.368795,-56.387226,-5.9248457,28.278145,0.09039354,-12.374842,-7.9819326,7.5191927,-15.749431,9.088924,-6.3696876,1.8115878,3.7038388,2.705412,-9.853571,-2.910389,0.80437046,-18.891773,-1.6771924,2.8753698,-10.357195,-0.56042945,7.9900517,-13.019975,-1.3004723,0.5065611,-9.574294,-5.5039635,0.21072775,-7.072497,-4.9620743,15.160454,-10.907319,-3.9704938,0.37651056,-12.830896,-1.4794881,-3.0893278,-11.398273,-21.66917,16.571733,-5.606865,10.074843,11.57942,5.1567307,-4.787657,4.6951523,-10.0786085,-0.14623441,-5.3934555,-5.309668
30.849686,-57.630013,-5.2951536,29.032358,0.91264606,-12.1943,-8.186864,7.6668463,-14.850489,9.500871,-6.5059705,4.90269,3.7216923,2.6714158,-9.848852,-2.9188433,0.8071133,-17.165152,-1.7161936,2.9019432,-8.66895,-0.5616553,8.164864,-12.662827,-1.2980938,0.503883,-7.4688134,-5.4592285,0.16485521,-5.9374475,-5.008732,15.535667,-10.636753,-3.9659133,0.34665596,-11.253401,-1.4261267,-3.135752,-10.884033,-22.155659,16.917349,-5.6612597,10.211175,11.682101,4.06011,-4.863205,4.7952,-11.962045,-0.16728504,-5.4340405,-6.2180715
31.451464,-58.451847,-5.4826245,29.703814,2.4506302,-11.5850725,-8.328825,7.780795,-14.326518,10.037131,-6.633145,10.005316,3.7638237,2.8332043,-9.8858385,-2.9311974,0.8171169,-11.080013,-1.8430986,2.9642868,-2.4686134,-0.5434657,8.535341,-12.93324,-1.2941406,0.49994206,-3.418021,-5.2265196,0.04807645,-2.8266902,-5.0299044,15.918646,-10.915429,-3.9126601,0.2803864,-6.74319,-1.2597255,-3.2488782,-8.584558,-22.50935,17.17044,-5.7016125,10.280947,11.362855,2.2218897,-4.8410883,4.8096848,-11.040736,-0.08393192,-5.5006127,-4.7278824
32.10472,-59.435295,-5.9424796,30.292374,3.3795934,-11.277231,-8.458221,7.872035,-14.046058,10.351673,-6.6949453,12.337627,3.8154137,3.2135181,-10.75027,-2.9345024,0.8183777,-10.037587,-1.8934721,2.9817228,-0.11188066,-0.5281358,8.941609,-14.336629,-1.2951785,0.5015651,-4.8232236,-5.2541485,0.05543907,-2.8213718,-5.043475,16.249664,-12.070982,-3.9118814,0.27272278,-6.234009,-1.2325503,-3.2846258,-8.286858,-22.862743,17.419413,-5.733263,10.373991,11.016454,1.3644717,-4.8159227,4.7993345,-9.383485,-0.02436252,-5.5570297,-3.4711213
32.585537,-60.01719,-6.5425644,30.592152,3.6789181,-11.219786,-8.486028,7.9107227,-14.586486,10.437628,-6.739748,12.547261,3.8811026,3.3763893,-12.546916,-2.9338849,0.81648785,-11.250769,-1.8938814,2.983523,-0.35350674,-0.5110093,9.195335,-16.256626,-1.2966845,0.5028533,-6.003606,-5.309478,0.06828788,-3.241188,-5.052286,16.314404,-13.729865,-3.932797,0.2856009,-7.30387,-1.2763983,-3.2767513,-9.01036,-23.062885,17.56304,-5.753586,10.393412,10.624108,-0.06764802,-4.8571396,4.834536,-10.1178,-0.010360852,-5.58014,-3.2822776
32.325096,-59.6503,-6.2355385,30.454433,3.8371966,-11.08338,-8.4862385,7.8964615,-14.07129,10.45032,-6.7297487,13.159765,3.874036,3.369196,-12.401216,-2.9329593,0.81652725,-11.017908,-1.895262,2.9816446,-0.21510798,-0.51168954,9.170977,-15.957817,-1.2964768,0.5025721,-5.6844172,-5.2821264,0.065001935,-3.083973,-5.0439854,16.247635,-13.42076,-3.9230561,0.28132153,-6.8605566,-1.264936,-3.2754345,-8.814691,-22.950783,17.484354,-5.741959,10.353308,10.57306,-0.07475796,-4.8477607,4.8270535,-10.085497,-0.0137437135,-5.564534,-3.3300872
32.526733,-59.563774,-6.9191985,30.428576,4.002759,-10.98416,-8.429145,7.8779974,-14.799474,10.432773,-6.744712,13.101229,3.9462938,3.468605,-14.623008,-2.929728,0.81465197,-12.269872,-1.8900943,2.977604,-0.65750045,-0.49144214,9.357147,-18.073137,-1.2978789,0.5032612,-6.3613367,-5.290225,0.06854381,-3.2218668,-5.0324697,16.125422,-15.017524,-3.930972,0.28991044,-7.269224,-1.2971463,-3.2647877,-9.234406,-22.920246,17.464668,-5.738896,10.302977,10.103184,-1.0782425,-4.8534827,4.8120337,-9.894816,0.025795773,-5.5719166,-2.4527287
32.586044,-59.29247,-7.5075006,30.284367,3.9814532,-10.946642,-8.35587,7.8414907,-15.493855,10.350948,-6.7224083,12.469291,3.9797132,3.455766,-15.691663,-2.9277058,0.8138179,-12.8206005,-1.886622,2.9757977,-0.7329982,-0.48338625,9.398055,-18.794184,-1.2973791,0.501766,-5.0935144,-5.2149134,0.032225445,-2.3891482,-5.020094,16.015276,-15.980757,-3.93479,0.30064213,-7.806073,-1.3189821,-3.2530904,-9.5013685,-22.816685,17.39418,-5.730571,10.217675,9.743364,-2.5334046,-4.8761024,4.8350244,-10.890194,0.03206621,-5.5635595,-2.3643332
32.452118,-58.94436,-7.6033254,30.124609,4.025631,-10.865931,-8.319125,7.813755,-15.516044,10.311131,-6.7028394,12.475092,3.9824972,3.4845994,-15.76319,-2.9268615,0.8143091,-12.421147,-1.890756,2.976019,-0.43715912,-0.47993094,9.402419,-18.999512,-1.2974668,0.50173354,-5.0581827,-5.194291,0.031230286,-2.2983797,-5.010331,15.909517,-16.1451,-3.9285483,0.30026078,-7.6202784,-1.3144758,-3.2520301,-9.383121,-22.695866,17.309813,-5.7190104,10.168071,9.605623,-2.7617955,-4.8631115,4.8194003,-10.67236,0.04413502,-5.555087,-2.0728557
32.412354,-59.155773,-7.190767,30.230091,4.009771,-10.909884,-8.372976,7.8405685,-15.030544,10.369369,-6.7152915,12.895641,3.9486864,3.5081058,-14.596768,-2.9289362,0.8154596,-11.491226,-1.8984869,2.9812407,0.0062066913,-0.48686084,9.370422,-18.190592,-1.2977092,0.5025337,-5.671153,-5.237034,0.048924625,-2.7289,-5.0200396,16.00554,-15.278707,-3.9244115,0.29091823,-7.077056,-1.2921889,-3.2656307,-9.057275,-22.773731,17.36317,-5.7253523,10.231257,9.89249,-1.7280228,-4.849015,4.805927,-9.996165,0.035267815,-5.5616555,-2.1891747
32.24512,-59.021046,-6.830189,30.195784,4.1202927,-10.836039,-8.393447,7.843458,-14.547191,10.401708,-6.7204227,13.452335,3.9388573,3.4880495,-14.364984,-2.9288278,0.8155706,-11.303403,-1.8982648,2.9800973,0.004464686,-0.48872256,9.3476515,-17.88841,-1.2976459,0.5025631,-5.6365185,-5.2368746,0.053762466,-2.801592,-5.018806,15.989,-14.914039,-3.9185452,0.2863019,-6.7403593,-1.2839653,-3.2649264,-8.950119,-22.740871,17.339506,-5.721227,10.223769,9.932852,-1.5713217,-4.8495326,4.8086677,-10.157962,0.023866251,-5.550817,-2.4370952
32.44131,-59.424156,-6.846324,30.3729,4.0366673,-10.945052,-8.421417,7.8708687,-14.719255,10.426803,-6.74212,13.2158985,3.9396574,3.4778621,-14.368262,-2.9299762,0.8154124,-11.574415,-1.8952041,2.9805667,-0.28473192,-0.4900602,9.362119,-18.001497,-1.297914,0.5030778,-6.173204,-5.2810163,0.06640482,-3.1634521,-5.030326,16.079887,-14.920942,-3.9261074,0.2863351,-6.965664,-1.2901328,-3.2675095,-9.103234,-22.87685,17.43441,-5.7346373,10.281998,10.0615835,-1.2437565,-4.8578963,4.815573,-10.13272,0.021202818,-5.5648546,-2.534876
32.508064,-59.39798,-7.069713,30.362011,4.0721827,-10.922654,-8.403103,7.8651295,-14.953201,10.41709,-6.749184,13.156894,3.9665637,3.496222,-15.26144,-2.9287586,0.81453645,-12.299661,-1.8896291,2.9775665,-0.6626284,-0.48387584,9.4135895,-18.760462,-1.2983,0.50320494,-6.401697,-5.2858,0.068434596,-3.228914,-5.027697,16.029032,-15.533207,-3.9308887,0.29119554,-7.3052616,-1.3066007,-3.2603986,-9.358031,-22.867157,17.428343,-5.734253,10.261942,9.897965,-1.6873934,-4.866639,4.8185244,-10.349516,0.030123606,-5.5655603,-2.3787289
32.70778,-59.463966,-7.5961165,30.370039,4.0053744,-10.964459,-8.364165,7.854759,-15.603984,10.376331,-6.750493,12.621789,4.0030713,3.5143704,-16.42371,-2.92746,0.81350285,-13.285291,-1.8829268,2.9746776,-1.1099424,-0.47627535,9.475442,-19.752522,-1.2985656,0.5031267,-6.458751,-5.280955,0.061895147,-3.1245725,-5.0251837,15.987762,-16.44847,-3.9397933,0.29968706,-7.8935366,-1.3292518,-3.2534738,-9.688637,-22.878407,17.437368,-5.736619,10.245519,9.702554,-2.2637293,-4.8737397,4.818577,-10.421405,0.049712256,-5.5747933,-1.9901421
32.5374,-59.32191,-7.2621017,30.328611,4.127557,-10.881551,-8.38389,7.855611,-15.126804,10.403,-6.7460756,13.1076765,3.9831357,3.509655,-15.780195,-2.9279852,0.8142103,-12.562707,-1.8888657,2.9766,-0.7236303,-0.4796643,9.446423,-19.228159,-1.2983588,0.5030663,-6.3147354,-5.2736535,0.06477547,-3.1151395,-5.024003,15.9807415,-16.006573,-3.932952,0.29559177,-7.554759,-1.3170525,-3.2544632,-9.511145,-22.838669,17.409033,-5.732049,10.23211,9.740419,-2.2614536,-4.8745785,4.8266087,-10.690691,0.034725532,-5.5627766,-2.3186932
32.799843,-59.364132,-8.0365925,30.323404,4.142214,-10.874452,-8.330015,7.8388443,-16.016966,10.342239,-6.736121,12.308528,4.024148,3.5593467,-16.955637,-2.9273055,0.8136297,-13.131896,-1.8898221,2.9770706,-0.7953487,-0.4692895,9.539877,-20.523888,-1.2985708,0.5029454,-6.336687,-5.258401,0.056310996,-2.921989,-5.020697,15.910223,-17.432688,-3.9457247,0.31128484,-8.630315,-1.349125,-3.242236,-10.030748,-22.833618,17.408058,-5.7350354,10.18028,9.370371,-3.81309,-4.8991013,4.8535967,-11.622317,0.049282834,-5.568562,-2.15492
33.559113,-60.35801,-9.017301,30.698454,3.7384615,-11.229483,-8.31238,7.8733664,-17.681147,10.287843,-6.774012,10.421498,4.05408,3.6143384,-17.640976,-2.9296522,0.81384766,-13.338609,-1.8879147,2.9843502,-1.0453728,-0.45975772,9.672628,-22.016268,-1.2999629,0.50421506,-7.657337,-5.3595915,0.07813732,-3.6822517,-5.042077,16.023655,-18.781069,-3.97527,0.32573038,-10.042694,-1.3949226,-3.2396126,-10.784908,-23.137798,17.62198,-5.7661467,10.263605,9.358431,-4.48568,-4.952004,4.897933,-12.6247015,0.047571734,-5.602648,-2.269875
33.594276,-60.43872,-9.017107,30.728254,3.6803672,-11.271122,-8.313376,7.8771973,-17.76899,10.283547,-6.780407,10.298362,4.047243,3.6201725,-17.37504,-2.930255,0.81453043,-12.795264,-1.8907475,2.987807,-0.8001115,-0.45885196,9.683651,-21.968653,-1.3000481,0.50414115,-7.61177,-5.3681884,0.07833442,-3.7344675,-5.0444474,16.025618,-18.739326,-3.9757123,0.32457978,-9.982352,-1.3952248,-3.2414966,-10.774799,-23.163948,17.640097,-5.7681212,10.268005,9.3815975,-4.6167126,-4.9666295,4.912232,-13.08045,0.035756305,-5.6003065,-2.510789
33.874413,-60.70749,-9.526605,30.814363,3.529718,-11.385086,-8.285775,7.877513,-18.557682,10.233546,-6.7837925,9.356963,4.0670323,3.613103,-17.977083,-2.9303231,0.81411296,-13.281932,-1.8863561,2.9876227,-1.1082666,-0.45441115,9.723744,-22.684914,-1.3002288,0.5041447,-7.704993,-5.381769,0.07717508,-3.7768166,-5.0478644,16.03522,-19.545576,-3.9889374,0.3360324,-10.867144,-1.4229783,-3.2318482,-11.230067,-23.2383,17.692907,-5.776495,10.268376,9.274463,-5.3865337,-4.995041,4.9422474,-13.964547,0.031422988,-5.6064143,-2.6798701
33.634495,-60.403072,-9.232939,30.666218,3.4076629,-11.398594,-8.27335,7.857525,-18.230618,10.203115,-6.767884,9.405102,4.0520716,3.5633936,-17.748447,-2.9283738,0.8134491,-13.772976,-1.876304,2.9800944,-1.5624297,-0.45967847,9.631432,-22.138727,-1.3002652,0.50442946,-7.840651,-5.3792624,0.08213243,-3.9009476,-5.037983,16.014515,-18.877754,-3.98107,0.3317688,-10.51403,-1.4133506,-3.2295566,-11.027311,-23.139248,17.621397,-5.763466,10.268623,9.441677,-4.3043704,-4.961225,4.902315,-12.948018,0.034633055,-5.597002,-2.4856415
33.495865,-60.284924,-8.944203,30.639402,3.5383956,-11.317484,-8.293421,7.8605795,-17.78315,10.23801,-6.767828,9.955973,4.0452313,3.549711,-17.572134,-2.9281316,0.813349,-13.722273,-1.876793,2.9790018,-1.5140443,-0.46213087,9.613625,-21.783594,-1.2999318,0.5041196,-7.544506,-5.3632383,0.078677446,-3.7642357,-5.0365696,16.015932,-18.56194,-3.9759543,0.32838362,-10.234312,-1.4053469,-3.229667,-10.911033,-23.110218,17.600906,-5.7601986,10.25962,9.451894,-4.2624764,-4.959176,4.904335,-13.012551,0.02785267,-5.589771,-2.6455202
33.75857,-60.58261,-9.331802,30.76068,3.4920022,-11.387338,-8.292699,7.8737535,-18.241415,10.243798,-6.783315,9.629272,4.075163,3.5914474,-18.479914,-2.9281366,0.8122413,-14.810679,-1.8716238,2.976923,-2.0508518,-0.45765638,9.673417,-22.672812,-1.3007318,0.5051607,-8.512465,-5.4046907,0.09238406,-4.146396,-5.042803,16.052153,-19.235638,-3.9874268,0.33430082,-10.800865,-1.4214962,-3.229014,-11.205164,-23.202736,17.666662,-5.7710757,10.296934,9.412406,-4.118061,-4.951516,4.8881216,-12.3409605,0.054496303,-5.612252,-2.1027708
33.63681,-59.99968,-9.901669,30.432407,3.283754,-11.384297,-8.195313,7.808297,-18.717571,10.11407,-6.7405496,8.900198,4.1062493,3.660718,-19.728874,-2.9238386,0.81000894,-16.716251,-1.8572417,2.9640672,-3.0265455,-0.45162728,9.641384,-23.756527,-1.3027393,0.5077758,-10.484689,-5.4382057,0.122587994,-4.8809304,-5.018101,15.888689,-19.890749,-3.9884584,0.3450461,-11.41018,-1.4366,-3.2164876,-11.36071,-22.97778,17.507782,-5.7471943,10.254768,9.304057,-3.000662,-4.872799,4.785062,-9.679215,0.11701967,-5.6158032,-0.55690974
33.342926,-59.41123,-9.875172,30.146904,3.2514548,-11.299858,-8.143135,7.761594,-18.539818,10.042776,-6.7096143,8.878178,4.110624,3.671844,-20.105156,-2.9210083,0.8090019,-17.455036,-1.8481675,2.954684,-3.562384,-0.449558,9.58333,-24.054247,-1.3037527,0.50932914,-11.560783,-5.4540396,0.14728868,-5.3911085,-4.999087,15.737431,-19.91307,-3.9817348,0.348072,-11.459684,-1.439,-3.2048507,-11.354997,-22.771,17.361029,-5.724823,10.203218,9.252632,-2.3176994,-4.8269234,4.728958,-8.427118,0.1399749,-5.601056,0.031584084
32.6577,-57.780518,-10.35446,29.259232,2.6295967,-11.323587,-7.9341125,7.599923,-18.919136,9.703874,-6.5803986,7.1357574,4.117027,3.6604345,-21.058706,-2.9118369,0.8051596,-20.292835,-1.8097746,2.9240377,-5.5252476,-0.44751322,9.349226,-24.39063,-1.3055389,0.51204467,-13.424879,-5.4484015,0.17866331,-6.1616783,-4.9390097,15.351223,-19.992819,-3.972349,0.37043607,-12.279346,-1.4612124,-3.1669137,-11.465472,-22.1683,16.933603,-5.659808,10.060799,9.222023,-0.19502693,-4.6920533,4.564668,-4.693055,0.20123474,-5.565368,1.7985159
33.005604,-58.54666,-10.257944,29.640587,2.7046854,-11.41795,-8.010076,7.6652145,-19.002615,9.816894,-6.636898,7.459664,4.11188,3.6517513,-20.622478,-2.9153998,0.8066829,-19.16321,-1.821231,2.9370465,-4.8197775,-0.44791073,9.43988,-24.168926,-1.3046813,0.5104847,-12.408763,-5.4508467,0.15727395,-5.78441,-4.9636436,15.526037,-19.962696,-3.9801223,0.36427894,-12.119935,-1.4601398,-3.180785,-11.514546,-22.442177,17.127111,-5.6879044,10.125507,9.287616,-1.1220641,-4.7632947,4.645999,-6.6954546,0.16154628,-5.578002,0.80225754
33.79541,-60.432137,-9.722336,30.62681,3.1054711,-11.550764,-8.228223,7.841934,-18.864975,10.141328,-6.7735953,8.6852045,4.092052,3.5806746,-19.265263,-2.9258134,0.8111871,-16.051313,-1.8559802,2.9692109,-2.9450402,-0.45384505,9.64167,-23.270939,-1.301593,0.5060679,-9.344962,-5.431116,0.10088429,-4.5367255,-5.0327444,15.982334,-19.485937,-3.990544,0.33737636,-11.040819,-1.431015,-3.226935,-11.291692,-23.134369,17.617548,-5.7626677,10.306515,9.491323,-3.0666492,-4.9151726,4.8292894,-10.88945,0.0858608,-5.620554,-1.2675371
33.99839,-60.702984,-9.970694,30.73843,3.0666702,-11.61204,-8.228783,7.853181,-19.266455,10.13519,-6.7820473,8.252404,4.100355,3.5838943,-19.444124,-2.9264677,0.8111664,-16.053003,-1.8563201,2.9715009,-2.926584,-0.45156568,9.682511,-23.580091,-1.3015784,0.50586545,-9.203636,-5.437973,0.0971939,-4.4863043,-5.0385113,16.017923,-19.934204,-3.999514,0.3440702,-11.56914,-1.4483224,-3.2218328,-11.579237,-23.219128,17.677633,-5.771646,10.311949,9.42245,-3.7932487,-4.9466114,4.866068,-11.881106,0.07219775,-5.6235013,-1.6285136
34.049538,-60.84246,-9.888283,30.843742,3.3666975,-11.485638,-8.259335,7.8724976,-19.110638,10.187062,-6.788413,8.642016,4.0924344,3.606596,-18.918962,-2.9288704,0.812719,-14.599799,-1.8731166,2.980795,-1.9904695,-0.4504767,9.742284,-23.529108,-1.3009343,0.50500053,-8.558095,-5.4202433,0.09225525,-4.2094793,-5.0471196,16.023869,-20.19694,-4.000121,0.34547684,-11.653318,-1.4498125,-3.2201967,-11.671087,-23.272861,17.716894,-5.7795343,10.2802305,9.232694,-5.350157,-4.995593,4.935095,-13.825931,0.042498574,-5.61368,-2.4633453
33.97541,-60.747986,-9.7758465,30.818192,3.4750457,-11.417637,-8.267893,7.8720875,-18.86431,10.207711,-6.7873726,8.992986,4.0954676,3.611801,-19.044308,-2.9284458,0.812327,-14.852728,-1.8726277,2.9788282,-2.087056,-0.45094386,9.738344,-23.550962,-1.3010517,0.50529075,-8.757126,-5.4205813,0.097492635,-4.276093,-5.0453243,16.013947,-20.17089,-3.9982915,0.345163,-11.618265,-1.4480648,-3.2182412,-11.661885,-23.246216,17.698267,-5.7770495,10.273523,9.208018,-5.2758017,-4.9867697,4.92725,-13.592655,0.047112897,-5.611724,-2.3823385
33.95334,-60.677994,-9.815388,30.804441,3.6592994,-11.311407,-8.27229,7.8712387,-18.735895,10.229615,-6.781763,9.332653,4.092924,3.6819727,-18.762005,-2.929586,0.8132562,-13.98936,-1.8862641,2.9847345,-1.3801287,-0.44901386,9.776541,-23.679413,-1.301404,0.5057952,-9.111444,-5.423828,0.10587133,-4.3652153,-5.045374,15.989716,-20.318779,-3.9953198,0.34431148,-11.495433,-1.4398856,-3.2224603,-11.545768,-23.220947,17.681316,-5.7759476,10.254649,9.100965,-5.625994,-4.982057,4.9266024,-13.5175905,0.054814443,-5.612198,-2.2442951
33.811836,-60.365135,-9.819082,30.681953,3.8652608,-11.155718,-8.258422,7.8530054,-18.511103,10.228083,-6.7650967,9.700523,4.101922,3.709924,-19.066257,-2.9286537,0.8129524,-14.171317,-1.8890867,2.982215,-1.3489282,-0.44726503,9.780054,-23.97656,-1.3016175,0.5062502,-9.435813,-5.4130044,0.1145442,-4.4195867,-5.037266,15.909824,-20.600643,-3.9918733,0.34756386,-11.6173725,-1.4410884,-3.2151105,-11.588478,-23.11539,17.607754,-5.7665296,10.206642,8.930348,-5.9770885,-4.967819,4.916102,-13.350733,0.06684773,-5.603508,-2.0392046
33.94053,-60.705257,-9.699921,30.839325,3.777225,-11.260089,-8.291389,7.881034,-18.531607,10.265252,-6.7879887,9.693661,4.0979323,3.6624222,-18.93475,-2.9296954,0.81292564,-14.24692,-1.885458,2.9837954,-1.4831982,-0.44971994,9.782211,-23.605228,-1.3009174,0.5052606,-8.672589,-5.405143,0.097041085,-4.123986,-5.0476623,16.007437,-20.320135,-3.995203,0.34396195,-11.465145,-1.439131,-3.2218194,-11.568103,-23.238152,17.693987,-5.7787437,10.252456,9.068201,-5.8738685,-4.989589,4.9391356,-13.821851,0.05137424,-5.6118965,-2.383438
33.94228,-60.679085,-9.768189,30.816437,3.739334,-11.271567,-8.277825,7.874118,-18.681921,10.240724,-6.7824097,9.4595785,4.088373,3.6579797,-18.575695,-2.9301207,0.81378925,-13.466188,-1.8905689,2.9879484,-1.0343388,-0.4489625,9.785822,-23.44613,-1.3005754,0.50455105,-8.100299,-5.385844,0.08587302,-3.8816686,-5.0459223,15.987743,-20.364433,-3.994707,0.34574127,-11.5162945,-1.4415115,-3.2201762,-11.580011,-23.223896,17.684027,-5.7768345,10.226205,9.014111,-6.513011,-5.013871,4.9692116,-14.832502,0.030985907,-5.6013665,-2.8310199
34.03868,-60.833538,-9.837751,30.870035,3.5802512,-11.378648,-8.276731,7.8805323,-18.907246,10.229007,-6.7905717,9.113892,4.0962157,3.612167,-18.93787,-2.9297142,0.81296676,-14.292662,-1.8804308,2.9840837,-1.6300182,-0.4498741,9.769474,-23.481375,-1.3003818,0.5042926,-7.915063,-5.387541,0.078667015,-3.8129056,-5.0491333,16.026491,-20.349964,-3.9990277,0.34610114,-11.63361,-1.4467154,-3.220765,-11.664225,-23.276028,17.720482,-5.782031,10.257204,9.109146,-6.114051,-5.0120397,4.961868,-14.550075,0.035795286,-5.6106133,-2.7058916
34.05738,-60.566723,-10.338569,30.73366,3.7225847,-11.25112,-8.221877,7.846203,-19.317032,10.163893,-6.7697535,8.717314,4.1169996,3.728952,-19.506176,-2.9283156,0.812944,-14.107254,-1.8874185,2.984541,-1.3537788,-0.4398196,9.844906,-24.810028,-1.3022165,0.506399,-9.667095,-5.436278,0.11800216,-4.6122203,-5.0365353,15.878748,-21.57053,-4.0058813,0.36262462,-12.720492,-1.4796882,-3.198349,-12.190022,-23.164623,17.64257,-5.770283,10.175873,8.734048,-7.3761168,-5.0231767,4.9757204,-15.323724,0.037649915,-5.5935936,-2.7402995
34.043617,-60.67492,-10.093694,30.806952,3.7930186,-11.239746,-8.25487,7.864749,-19.021011,10.212844,-6.7794437,9.119541,4.113337,3.6845107,-19.407642,-2.9289563,0.8127474,-14.301791,-1.8858976,2.9836857,-1.4798377,-0.44375542,9.82564,-24.38448,-1.3014268,0.50564986,-9.041383,-5.416009,0.10573548,-4.3058763,-5.042352,15.941841,-21.212132,-4.003792,0.35765502,-12.406398,-1.4691105,-3.2039545,-12.0585375,-23.213203,17.676895,-5.7761006,10.20081,8.823891,-7.149855,-5.022189,4.9788437,-15.229537,0.036193416,-5.599108,-2.8137999
