2.4326696926764136e-06,-3.820094647222979e-06,-1.8332989205116627e-06,1.7723523090656733e-06,-3.051256106466753e-07,-9.376242047895707e-07,-4.101305051509119e-07,4.20903407841756e-07,-2.5354218903667165e-06,3.542170313021503e-07,-3.2040433803148813e-07,-2.8107600149972037e-06,3.009736599257281e-07,2.4766678430242705e-07,-3.244027306496592e-06,-1.6923147214389256e-07,4.053689364572946e-08,-6.174387667300464e-06,-5.231065801200389e-08,1.4529023935709807e-07,-3.3381252828375727e-06,-2.3451310578500907e-08,5.630640609667779e-07,-2.4442801770257985e-06,-7.680031776795375e-08,2.9678417729795008e-08,-1.3602337561967394e-07,-3.116151469629375e-07,4.6270890140528905e-09,-1.5000807066570666e-07,-2.820215328335954e-07,1.0089065596192092e-06,-3.889981872960824e-06,-3.0058562977650114e-07,1.1792262580026952e-07,-6.327236923086298e-06,-2.4827679975482603e-07,-8.24749537377862e-08,-3.3663679004364906e-06,-1.3846539898238974e-06,1.0517390892307918e-06,-3.4735747099390384e-07,4.780367840747274e-07,1.4906615545248736e-07,-4.071868893424612e-06,-4.1306989382001086e-07,4.7518583136902147e-07,-6.055982888947316e-06,-1.0629061404973836e-07,-2.878751557019878e-07,-2.711196445826546e-06
0.00040863440518384595,-0.0006419590466068152,-0.0003081073830286162,0.0003002911199583723,-3.6792884863879864e-05,-0.00015035944750444453,-6.844019693933268e-05,7.027357234071333e-05,-0.0004352295602588734,6.198183430592536e-05,-5.6638340579099166e-05,-0.00042783278000074027,4.998340805238636e-05,3.047747244571384e-05,-0.0005464486341424326,-2.844573698885961e-05,6.74926161119496e-06,-0.0010684392391037553,-8.867608234560741e-06,2.4545165178957175e-05,-0.0005533997694855735,-4.1155410347234324e-06,9.017464244132753e-05,-0.000416742447747638,-1.2908905298552142e-05,4.98688682720932e-06,-2.5803368960635668e-05,-4.944929295604664e-05,6.411100115119784e-07,4.660329081012143e-06,-4.757539092657581e-05,0.00016653832211601597,-0.0006572208716851907,-5.0390583238009284e-05,2.020530348525801e-05,-0.0010814186712617515,-4.096794731709505e-05,-1.4986095723578944e-05,-0.0005477875951873339,-0.00023262748026656998,0.00017669642815004046,-5.8357462458445254e-05,7.994716892264962e-05,3.060164134656762e-05,-0.0007080211961631147,-6.946516003276189e-05,7.95498157415256e-05,-0.0010110396212592515,-1.7282961725627268e-05,-4.8910043618960526e-05,-0.00043816932937644027
0.0004229461547027287,-0.0006581878311779117,-0.0003389276649744309,0.00030743683387038286,-2.4203798541854418e-05,-0.00014629151606668575,-6.995568567544819e-05,7.180613506007414e-05,-0.00043564288442099,6.602904801288395e-05,-6.038932791629953e-05,-0.0003866402326830776,5.19047574187376e-05,4.264579100809756e-05,-0.0005785479093727596,-2.893464387545471e-05,6.849996315414704e-06,-0.0010940026079063944,-9.276485534846399e-06,2.533420585077353e-05,-0.0005414851086995357,-4.027826205364688e-06,9.682417573430923e-05,-0.0004062641163628915,-1.3215746035133883e-05,5.0780294814353665e-06,-6.797333703272988e-05,-5.013795419786133e-05,6.49953488402973e-07,6.325352264457784e-06,-4.838047108839259e-05,0.00017043032347811816,-0.000652333791114326,-5.125246030234124e-05,2.05390846385125e-05,-0.0010993330557648767,-4.180909966375166e-05,-1.5040227662281366e-05,-0.00056036600789459,-0.00023659340382229361,0.0001797088174249851,-5.935236312431246e-05,8.204842550347247e-05,3.326870880997313e-05,-0.0006771064519957139,-7.069861055581013e-05,8.067069685683948e-05,-0.0010229437609239108,-1.856973210510423e-05,-4.873806313240201e-05,-0.00047654168449242745
0.002865534190313383,-0.004542960194990124,-0.0019973334613981692,0.0021781067508371693,-4.641147271047421e-05,-0.0009657551499111739,-0.00049438987147647,0.0005072190646279674,-0.0030110439374156066,0.0004442495224005489,-0.0004074046747479922,-0.0030295865424785602,0.0003587910915399844,9.395053015668433e-05,-0.0043530289387510995,-0.00020335567781937035,4.834826994938863e-05,-0.007591083597764562,-6.277148765110338e-05,0.0001745809970336861,-0.004009150326138407,-3.560205806392783e-05,0.0005300817108063831,-0.0027524162607700303,-9.250461170301632e-05,3.5654543281868746e-05,-0.0002851484882018338,-0.000358514233508782,4.629348618343188e-06,-1.7634979106645465e-05,-0.00034820940969108606,0.0010814381875613062,-0.004555789780870276,-0.0003602223811967629,0.00014461383696702664,-0.007738717745826023,-0.0002929381465946641,-0.00010712631870105253,-0.003917049942883881,-0.00166325316529076,0.001263354153513396,-0.00041724749819376563,0.0005801651638010705,0.00018969865317203932,-0.004578047815335524,-0.0004967856266573172,0.0005681329245270975,-0.007214086458849247,-0.00012927528692359958,-0.00034427799119325165,-0.0033049444434989045
0.0014465290566685813,-0.0022668521812572954,-0.0011065021715756737,0.0010624964188723396,-0.00010240817665358408,-0.0005162630305040723,-0.00024205390835687032,0.0002484472514354752,-0.0015185485341340456,0.00022203658107935827,-0.00020263416085853982,-0.0014534438990839455,0.00017842635297850735,0.00011750744564888205,-0.0020152476245464397,-0.00010026272081989235,2.383610293837433e-05,-0.003743630551850001,-3.121915370365561e-05,8.632551647301016e-05,-0.001959724252632288,-1.4776690615013162e-05,0.000316600795537485,-0.0014187657328186192,-4.5730750719677575e-05,1.759400268740682e-05,-0.0001997305719542367,-0.00017526866201589,2.383106912298719e-06,6.516099976880162e-06,-0.00016834371027644223,0.0005810322251368966,-0.0022601664023077493,-0.00017765203670760648,7.113765958796287e-05,-0.003807900629539429,-0.00014654741691388494,-4.95388237594504e-05,-0.0019825256558320104,-0.0008200275052644341,0.0006228667868429703,-0.00020571397798112458,0.0002844319944169724,0.00011036075848054379,-0.002343326717944838,-0.0002447796771941082,0.00028076659263104445,-0.0035718871830392384,-6.44798743676605e-05,-0.00016879003777945154,-0.001655610533542786
0.00026328032111089695,-0.00041394370082754205,-0.00019710052615823378,0.00019309836809734292,-2.7244897679385753e-05,-9.874662365924281e-05,-4.417567321510022e-05,4.5344829717954605e-05,-0.00028106508839821924,3.9516368921300876e-05,-3.578865858057933e-05,-0.0002867657333903961,3.2397156837604835e-05,1.7759322818534142e-05,-0.00036516172452370966,-1.8355513965321745e-05,4.377815304293391e-06,-0.0006787031994174739,-5.65906779280539e-06,1.571744279619623e-05,-0.0003638563763117423,-2.8793649921094354e-06,5.417635642783377e-05,-0.00025930373407674146,-8.362944149557698e-06,3.2208084960292955e-06,-3.14297806816711e-05,-3.257865124150064e-05,4.515668822989082e-07,-3.8042312663829153e-06,-3.096693441890415e-05,0.00010453127571147913,-0.00041042165120000907,-3.25325791185991e-05,1.3012624279967336e-05,-0.0006966154601681467,-2.712398611819649e-05,-8.606540124917735e-06,-0.00037021341745547377,-0.00015015314872475298,0.00011405155153958304,-3.766776276681077e-05,5.219965058524835e-05,1.592939154155857e-05,-0.00042111670489226204,-4.4729255708889845e-05,5.177844125874722e-05,-0.0006624229993757362,-1.2104552493119303e-05,-3.059918848001421e-05,-0.0003125283398851338
0.0008156230503978472,-0.00130099051144371,-0.0005455800813636554,0.0006158977485696411,-8.44932796111591e-05,-0.0003135507593987497,-0.00014046614067375455,0.00014415410077028102,-0.0009014238254599014,0.00012148716031481805,-0.00011068212230363857,-0.000978499488875253,0.00010175693869314239,1.7335991808658093e-05,-0.001201318753489561,-5.8442737683005976e-05,1.4083479000281788e-05,-0.0020927811302591352,-1.6895485537934118e-05,4.828357325712807e-05,-0.001259641838594532,-9.383593537293926e-06,0.0001643636315465808,-0.0008662645527234468,-2.6525364494442222e-05,1.0250545645788105e-05,-4.3092115025363874e-05,-0.00010643856274267477,1.6728808822305825e-06,-3.9495176554347924e-05,-9.938240039432432e-05,0.0003198154705229238,-0.0013477812312880642,-0.00010375401060763632,4.112054046969202e-05,-0.0022037151502865547,-8.55357812570107e-05,-2.8736660213016436e-05,-0.0011586793082692776,-0.0004783703617677958,0.0003633548975398598,-0.00012000508450724331,0.00016498541715785902,5.101658220099891e-05,-0.0014153584357302512,-0.0001426330547342745,0.00016465616964465022,-0.0021034049169917995,-3.560578410788279e-05,-0.00010053352364962101,-0.0009027393854302368
0.0007558948502915075,-0.001217491875624291,-0.00047501611603887364,0.000578111449639428,-9.027592699995028e-05,-0.0003005267334701488,-0.0001302987541149658,0.00013378229671008309,-0.0008872306969993199,0.00011407364132449583,-0.00010407311470224718,-0.0009237962826968746,9.565509519087853e-05,2.4832946997948536e-05,-0.0010970036536540426,-5.499293923454251e-05,1.3296755302418584e-05,-0.001948308720431101,-1.565027059994205e-05,4.489689657979317e-05,-0.0012139288812601325,-8.169573626632757e-06,0.0001654273017193055,-0.0008574097164146898,-2.491110277696792e-05,9.64542967845217e-06,-1.4947216725534492e-05,-9.7563324633971e-05,1.3440716437929058e-06,-1.0168633095415298e-05,-9.251777990200635e-05,0.00031433750661180755,-0.0012952267698838435,-9.765029824953339e-05,3.871305830728702e-05,-0.0020745836607775543,-8.069374277240586e-05,-2.692267060202583e-05,-0.0010931983061871656,-0.0004502155709656614,0.0003419694147742343,-0.00011294210920708472,0.0001543943753035983,5.5944152658138116e-05,-0.0013879103044160237,-0.00013425734977931715,0.0001549322776586777,-0.001978914425547492,-3.208172297356152e-05,-9.596725430267004e-05,-0.0008065963292617264
0.0016559463447742664,-0.0026353381497122713,-0.001123145388917186,0.0012544573266899592,-0.00011691624077047813,-0.000607277263062963,-0.00028501936834896175,0.0002925175100695639,-0.0018055619557115182,0.0002521790518266213,-0.0002309898586313629,-0.0018661521292185554,0.00020672617572257425,2.621300100207228e-05,-0.002509120998347939,-0.00011823588201008659,2.8454480612087053e-05,-0.004251958464982906,-3.4851126210925e-05,9.888654084293725e-05,-0.002482621483746054,-1.972376639249542e-05,0.0003199513660447209,-0.001711168120919591,-5.375992352851467e-05,2.0742454156026997e-05,-0.00013508402841251913,-0.0002080556277838083,2.6738527229414023e-06,-4.697325420096354e-06,-0.0002026166575980297,0.0006255297392554835,-0.0027016021273354074,-0.00020970468014714947,8.383374685303605e-05,-0.004488504919567807,-0.0001707742382409504,-6.17840704346907e-05,-0.002287459132776384,-0.0009677315872671079,0.0007350581052682338,-0.00024276736226123264,0.00033517679394131473,0.00011902281439744194,-0.002789793277350111,-0.00028884386305825626,0.0003316793917927657,-0.004222978301939906,-7.317277643474866e-05,-0.000202282099781443,-0.0018608145336823656
0.003713936960996501,-0.0059211405415220495,-0.002489183565240076,0.0028286560273908094,-0.00022038150604527937,-0.0013447539552916437,-0.0006429763857060439,0.0006598507506864891,-0.004024219314243987,0.0005670293789457615,-0.000519594174658022,-0.004200261719480611,0.0004648816571306166,4.53573182926345e-05,-0.005679863434480943,-0.00026597177637244663,6.402003562051736e-05,-0.009558734538366979,-7.796814170463447e-05,0.00022163916594070409,-0.005627988284975976,-4.561574647019718e-05,0.0006965909949941273,-0.0038021968339747134,-0.00012097930177024884,4.6661455292029486e-05,-0.0003255086895645395,-0.00046604763821996785,6.004353344243112e-06,9.73581889394354e-06,-0.00045654296784090247,0.0013978267320068005,-0.006047211218987179,-0.0004716090853794977,0.00018893071203714316,-0.010112914665704577,-0.0003826051020089484,-0.00014121581790477682,-0.00510987208280647,-0.0021769282813414973,0.0016535254184547427,-0.0005461092142146694,0.0007539663746246782,0.0002660633174073282,-0.006276527888139117,-0.0006499314718549521,0.0007451095255839114,-0.0094765033847882,-0.00016513525390182975,-0.0004545608013901528,-0.004201509679610803
0.0005081143758936844,-0.0008101897610176847,-0.0003388303028012367,0.0003884320379791318,-2.2914468474315802e-05,-0.00018049285327253879,-8.837049080782443e-05,9.068206555583752e-05,-0.0005443875965156069,7.778792245950653e-05,-7.13414276655716e-05,-0.0005723742835536107,6.362627191428905e-05,-1.6332910798993142e-06,-0.0008010355450502179,-3.641721515911228e-05,8.780143729850462e-06,-0.001301894311072852,-1.0681490157387738e-05,3.0385910835983952e-05,-0.0007690476175160031,-6.643949864223697e-06,8.801429390805947e-05,-0.0005055749736958272,-1.6572379223184477e-05,6.389177369902409e-06,-4.7449798479516135e-05,-6.410174194467668e-05,8.140017941760508e-07,-1.5777196807468817e-06,-6.299620023276193e-05,0.00018496278620791284,-0.0008180730693263349,-6.455947838818183e-05,2.59266030865744e-05,-0.0013873760523448243,-5.18547854762207e-05,-2.0118933292108045e-05,-0.0006872493796452787,-0.0002980970061537565,0.00022642499574526573,-7.478129765949585e-05,0.00010351426233598128,3.683392072470324e-05,-0.0008438183563736826,-8.898060272141185e-05,0.00010210032519527005,-0.0012991757521032996,-2.270268735136181e-05,-6.218894810271805e-05,-0.0005775854381955328
0.0003369249325081345,-0.0005365322388381232,-0.00022707517982242608,0.00025666603287706713,-1.6893024461817296e-05,-0.00012025894070490629,-5.8390423521594695e-05,5.991803184359903e-05,-0.0003613632738572169,5.1510919538726595e-05,-4.723199333939555e-05,-0.00037774009627352127,4.212778245847689e-05,1.6564886300425543e-06,-0.0005234267477497708,-2.409117658927939e-05,5.795120653889506e-06,-0.0008674644301344176,-7.097456724123955e-06,2.0148653363260268e-05,-0.0005058710519592778,-4.25921174485614e-06,6.085447753281758e-05,-0.00033813717634042145,-1.0963889602371861e-05,4.22646261613534e-06,-3.24449590873063e-05,-4.231405805677703e-05,5.409512538473644e-07,-1.6275084408688278e-07,-4.152359785053748e-05,0.00012436486502490803,-0.0005431296317504973,-4.270973191075411e-05,1.712198433629004e-05,-0.0009163831932821744,-3.445909983928378e-05,-1.3075181673645433e-05,-0.00045828537761592606,-0.00019717477357497358,0.0001497676808091096,-4.94637152647163e-05,6.842196100610416e-05,2.446913372078855e-05,-0.0005609853117354184,-5.887041719926475e-05,6.746154436042324e-05,-0.0008577028651716986,-1.5040486049113287e-05,-4.109749641926238e-05,-0.0003829873033332837
8.59963197598921e-05,-0.00013699247992680365,-5.773497598191586e-05,6.551973740322116e-05,-4.5991256603805084e-06,-3.086203851100067e-05,-1.4887965070026589e-05,1.5278539291953283e-05,-9.288041120762626e-05,1.3099242138005274e-05,-1.2006487074438257e-05,-9.747983994748119e-05,1.0741081229223261e-05,1.2865846806865598e-07,-0.0001334589875888513,-6.15387470559838e-06,1.4815789514527701e-06,-0.00022097188058825348,-1.8130027693679213e-06,5.147438428555959e-06,-0.00012920472132451602,-1.0845404594127793e-06,1.5602091237041025e-05,-8.659902019133511e-05,-2.798637757533959e-06,1.0795260645746037e-06,-7.266324992980425e-06,-1.0849102138900904e-05,1.382058564286145e-07,-4.518376122627452e-07,-1.0599920427210648e-05,3.186784991613046e-05,-0.0001389978729184491,-1.0912020438786866e-05,4.366532613778805e-06,-0.0002337425179725446,-8.7815845428737e-06,-3.3702334511052026e-06,-0.00011658452568677674,-5.036867723501894e-05,3.8258443705239114e-05,-1.2635601724507845e-05,1.7462923317608774e-05,6.0908127605580455e-06,-0.00014406782691056536,-1.5036220712960694e-05,1.7239470083008915e-05,-0.00021923412805930481,-3.802842665382231e-06,-1.0537870291343515e-05,-9.661541755038588e-05
2.7413344948914076e-06,-4.3656017494300705e-06,-1.8451076169100901e-06,2.0891911988059915e-06,-1.344455386554674e-07,-9.771523885123866e-07,-4.7525931150101975e-07,4.876517620021528e-07,-2.9399887157424583e-06,4.183682031837302e-07,-3.835096607790314e-07,-3.088335417514449e-06,3.423969852084744e-07,7.61212455558133e-09,-4.251573660459204e-06,-1.960586750181432e-07,4.717964815837304e-08,-7.050401711199232e-06,-5.7792291917610316e-08,1.6404213532302946e-07,-4.11327095900819e-06,-3.4780524740008626e-08,4.935646594209343e-07,-2.742402345118152e-06,-8.920608923093479e-08,3.439455407389247e-08,-2.5380475940654264e-07,-3.450249971852574e-07,4.396381089541328e-09,-8.108558671190206e-09,-3.380447676298654e-07,1.0107335552028783e-06,-4.417669745709368e-06,-3.4758418408314997e-07,1.39250753154212e-07,-7.453053341106111e-06,-2.797017249560414e-07,-1.074318911705111e-07,-3.7130199658240497e-06,-1.6046666896100065e-06,1.218853731728212e-06,-4.025503607309264e-07,5.564368453741263e-07,1.9546734500127377e-07,-4.585056599319159e-06,-4.791444138656063e-07,5.486054232823148e-07,-6.970418752474245e-06,-1.218548327523437e-07,-3.350061109624453e-07,-3.0999132460830013e-06
1.3989471608643982e-05,-2.2225432737970313e-05,-9.577441637546095e-06,1.0526658103768945e-05,-1.2812401310329923e-06,-5.266158693961379e-06,-2.410664984624736e-06,2.472274091884397e-06,-1.5046023926330753e-05,2.0838834716396915e-06,-1.9025573421061996e-06,-1.6436384480080474e-05,1.730187452963217e-06,2.969052696059491e-07,-2.0225184507430432e-05,-9.965128994727462e-07,2.389099240600068e-07,-3.6260196333882395e-05,-2.944117328794659e-07,8.347272927277481e-07,-2.0841332190940848e-05,-1.5425618238251124e-07,2.916607972884181e-06,-1.4877920786738689e-05,-4.5197478324895e-07,1.7474689951488637e-07,-6.440190104946178e-07,-1.752415551284527e-06,2.251307987709971e-08,-3.173859814617787e-08,-1.6861718032578537e-06,5.560374029858154e-06,-2.3150691256765116e-05,-1.7676143673277136e-06,7.037863747691231e-07,-3.769533734871529e-05,-1.4397276834276304e-06,-5.201904319833954e-07,-1.9284801768850832e-05,-8.15453996191136e-06,6.193928949517951e-06,-2.0456665702083958e-06,2.806740544551463e-06,9.589739175381564e-07,-2.4543915768663736e-05,-2.434484339566947e-06,2.791297385497597e-06,-3.5502279001325196e-05,-5.992936283118967e-07,-1.72057367886375e-06,-1.516428586258307e-05
2.313700230929927e-05,-3.695890308587365e-05,-1.528247291916394e-05,1.772035025081427e-05,-1.132295344830326e-06,-8.283412752906674e-06,-4.035103331213151e-06,4.138825555583601e-06,-2.4851897024338733e-05,3.554599357279266e-06,-3.252432516451296e-06,-2.611590289209234e-05,2.895890241722088e-06,-3.3503344495489124e-08,-3.594936456859579e-05,-1.6626859521530712e-06,4.011224526665207e-07,-5.925311755527082e-05,-4.862522015056831e-07,1.381687074432859e-06,-3.53505994006019e-05,-2.99215145649685e-07,4.103796609909283e-06,-2.314338754667871e-05,-7.562726812193632e-07,2.916713904251229e-07,-2.029821333641989e-06,-2.925310087442135e-06,3.7425909118144044e-08,-6.104848789654305e-08,-2.874617873066585e-06,8.468777118814922e-06,-3.728011058192841e-05,-2.945436622832469e-06,1.1801916955700866e-06,-6.313798458757511e-05,-2.3664403723026366e-06,-9.156901867022118e-07,-3.139016077727697e-05,-1.3608897356594977e-05,1.033688518319228e-05,-3.413959157698275e-06,4.724883403994988e-06,1.6327596279025365e-06,-3.869509587520328e-05,-4.0581791679625995e-06,4.656716869646881e-06,-5.9173412599086134e-05,-1.0269427842623586e-06,-2.8464747714870323e-06,-2.6101629989259815e-05
3.418812020770257e-29,-6.009087124263285e-29,-1.1397121122122044e-29,2.8844270866334597e-29,-6.480244761528061e-30,-1.6136831666332022e-29,-8.457749961144334e-30,7.849961801047293e-30,-1.3697469177510282e-29,7.575919701861023e-30,-6.468454086769318e-30,-2.1171219667521153e-29,3.530359533511349e-30,1.7457173836207476e-30,-5.0404786625856756e-30,-2.8699841756929188e-30,8.044288830132692e-31,-1.6985233866796202e-29,-1.5736869778165615e-30,2.8569822773047985e-30,-1.365318858935644e-29,-5.45993605980366e-31,9.474764000902008e-30,-6.929842586773525e-30,-1.2830231922135006e-30,4.942401060665631e-31,-9.888056141306694e-30,-6.23397626315779e-30,3.6526541458695977e-31,-1.422038241302192e-29,-5.2219928473747965e-30,1.546846818330162e-29,2.484829741245085e-30,-4.24314459154347e-30,4.682734927812126e-31,-2.2827557778084408e-29,-2.3928165280330613e-30,-2.809146240350579e-30,-2.5697385404416386e-29,-2.2859157780046616e-29,1.736308851226197e-29,-5.734500672285306e-30,9.904224832923084e-30,7.569134807890892e-30,-9.905675171880498e-30,-6.306964187951791e-30,5.902123776785577e-30,-5.323878702455809e-29,-1.2743490213328166e-30,-5.112743944622369e-30,-3.1549633048967784e-29
2.857587294088005e-18,-5.389087103164014e-18,-4.0825547866813126e-19,2.737262056234769e-18,2.9784102970061374e-19,-1.0147600348682815e-18,-7.839973593660698e-19,7.139267617157193e-19,-9.146987814746775e-19,8.95071875277536e-19,-6.132633515597227e-19,6.866788749710158e-19,3.2237393570125845e-19,2.0414381750713674e-19,-4.969564773825588e-19,-2.597626052273231e-19,7.282354656728284e-20,-1.066886488764434e-18,-1.6572974440254351e-19,2.639468851765012e-19,-5.073537571522964e-20,-5.863228608940326e-20,6.479013716124669e-19,-6.11705129189923e-19,-1.1509890402195575e-19,4.4236974970176165e-20,-5.597305598872118e-19,-5.181769600768072e-19,1.1679128720516191e-20,-7.826428908611741e-19,-4.732465517436566e-19,1.2859404611334078e-18,-3.0422015709459743e-19,-3.5958799501789385e-19,3.2085011226576616e-20,-9.071079309222253e-19,-1.1403949987176259e-19,-2.910047088963436e-19,-8.800810797616792e-19,-2.0618204618338834e-18,1.5660931832958421e-18,-5.172330029953453e-19,9.775727571727208e-19,1.1970368747568267e-18,1.2261398367125383e-18,-4.757991434104725e-19,4.473057055006188e-19,-1.902851785542884e-18,-3.2625001536090265e-20,-4.943673880012094e-19,-8.813820459085603e-19
2.0419917070796753e-17,-3.827910821118055e-17,-3.181283783308328e-18,1.9540090721116632e-17,2.9064309005485993e-18,-6.807192986371142e-18,-5.538075038225592e-18,5.067247166473637e-18,-7.001353290946755e-18,6.5458665262982415e-18,-4.322293774664813e-18,7.132178562268525e-18,2.3348747120460308e-18,1.3237034456865441e-18,-5.153256274803917e-18,-1.8492542076526002e-18,5.18088601125317e-19,-5.990774057300377e-18,-1.1485465393519387e-18,1.8717381030620173e-18,-1.764632084327596e-18,-4.118669538263072e-19,4.54384162724219e-18,-5.7899212015087305e-18,-8.14336375618289e-19,3.141117915426106e-19,-2.2096252545753853e-18,-3.4394444879354173e-18,5.46928105381432e-20,-3.0453678754893246e-18,-3.334451739985679e-18,9.437411101379745e-18,-3.4249351970272752e-18,-2.5408746254586486e-18,2.2544503659578347e-19,-5.777869875075258e-18,-7.107543847109348e-19,-2.084298108828879e-18,-4.930128378852162e-18,-1.465305414145436e-17,1.1129993435502234e-17,-3.6758987200548185e-18,6.7905403014578e-18,7.827352321211626e-18,4.753537888309148e-18,-3.219437168781056e-18,3.125671787423762e-18,-9.731728426698533e-18,-1.4319127203738302e-19,-3.527719377938607e-18,-4.296252802126356e-18
1.6217042485890657e-17,-3.0177930081349975e-17,-2.8389451506088406e-18,1.5343182623481806e-17,1.6228784293177897e-18,-5.710255927791745e-18,-4.356441545410984e-18,3.9918896446222665e-18,-5.641782337844903e-18,5.194615356886614e-18,-3.4007486052603508e-18,6.055915735188767e-18,1.835053269604421e-18,9.168053801229075e-19,-4.123266158210305e-18,-1.456728567105315e-18,4.0821373539040813e-19,-5.0803050495114716e-18,-8.92442592216419e-19,1.4742997695112342e-18,-1.9947054787766987e-18,-3.194337030924482e-19,3.677722904826386e-18,-4.718988397811055e-18,-6.42151463561192e-19,2.4758623401496978e-19,-1.9126989742653427e-18,-2.637788665269939e-18,3.7868839168608136e-20,-1.648608974080155e-18,-2.5951207210189987e-18,7.889885625621899e-18,-3.0757877158462024e-18,-1.99930799611465e-18,1.7716240940035235e-19,-4.4064018687571454e-18,-5.355610274137161e-19,-1.6452446512576987e-18,-3.561325947225441e-18,-1.1548538203085873e-17,8.771901963179115e-18,-2.8970927418557856e-18,5.287721027454582e-18,6.55613779790496e-18,2.631388919162993e-18,-2.473028129333046e-18,2.4471768055065307e-18,-6.195174281681888e-18,-6.255560630570337e-20,-2.7870713427022722e-18,-2.275488988799124e-18
1.9424519252628824e-11,-3.753955813472647e-11,-1.3953831670715024e-12,1.8946031241636614e-11,5.913542229722582e-13,-7.845497802187325e-12,-5.46133945822175e-12,4.982002265978698e-12,-6.580089020506069e-12,6.0474911842007966e-12,-4.252212098768606e-12,2.3660982652806258e-12,2.2454186214100377e-12,1.377283587516208e-12,-3.382317203947828e-12,-1.811207298322057e-12,5.075798357217894e-13,-8.820700431663389e-12,-1.0290570339412894e-12,1.8235550543074925e-12,-6.516932012538552e-12,-3.871577925120353e-13,4.6559930705861776e-12,-7.339155407868476e-12,-7.99420749705116e-13,3.086261518801898e-13,-1.844159530535859e-12,-3.213839843619583e-12,5.2406978839372965e-14,-1.2947998554302287e-12,-3.21585063241639e-12,9.768620042992422e-12,-6.667229591978288e-12,-2.4641609064363384e-12,2.17671394736939e-13,-4.216958686037032e-12,-7.609797093058591e-13,-2.039189963591162e-12,-5.672952194373051e-12,-1.4396669205174208e-11,1.0935251600098939e-11,-3.6115814077720617e-12,6.611907635468272e-12,8.546571210523662e-12,4.063872662904446e-12,-3.3510398859992288e-12,3.1394945047852493e-12,-1.401620109967582e-11,-5.381933069214178e-14,-3.4745597289785824e-12,-2.310831472275247e-12
1.346985739053096e-07,-2.4778044677098145e-07,-2.7506875789417243e-08,1.256873823516415e-07,1.0711733302740992e-08,-4.821587713960749e-08,-3.5448521282600974e-08,3.268919029206865e-08,-5.1022835686726976e-08,4.1879308398284255e-08,-2.8032406210263303e-08,4.028923971133088e-08,1.5860706500497426e-08,7.096240259174057e-09,-6.050491221707387e-08,-1.1923933066164837e-08,3.3415672100127678e-09,-5.963916375918326e-08,-7.032070636500522e-09,1.2071312820650506e-08,-3.0698498752729766e-08,-2.291239224721587e-09,3.369803151109622e-08,-7.103467532491144e-08,-5.302770196771143e-09,2.0352853416281436e-09,-3.088744478858942e-08,-2.2213584838507504e-08,3.396574497953932e-10,-1.9298468080357465e-08,-2.038435775582018e-08,7.266587465383062e-08,-6.851494956793303e-08,-1.6392287064835774e-08,1.4965163090925661e-09,-3.6643982103389895e-08,-4.573736511871359e-09,-1.3431447196905688e-08,-3.191602848620553e-08,-9.479765235462114e-08,7.20052787782269e-08,-2.3781156173355837e-08,4.089392885064543e-08,5.7165190034775266e-08,-2.9034870901101363e-08,-1.9933119355082235e-08,2.0116721800741142e-08,-4.439467136471969e-08,-9.565518849316725e-11,-2.287095477983328e-08,-9.740212469603448e-09
1.2119339451427966e-06,-2.318282761680339e-06,-1.1820916704930333e-07,1.1746671943170872e-06,5.914353592271623e-08,-4.7350377293577936e-07,-3.25182222072257e-07,3.0486397059605946e-07,-5.884839411969641e-07,4.016362050749844e-07,-2.617667073431803e-07,4.854265783405549e-07,1.5075454723110394e-07,3.3183954086302393e-08,-6.940007313499661e-07,-1.1209120753447584e-07,3.142051471303154e-08,-4.2918523899917407e-07,-6.792858829341403e-08,1.1357344971124782e-07,-1.9075077385386708e-07,-2.3952468534732524e-08,2.603336285008979e-07,-6.773321208221721e-07,-4.948520896434415e-08,1.9061321091367456e-08,-1.6653088376696292e-07,-2.0675625135258518e-07,3.0561170434546094e-09,-1.6445185387471252e-07,-1.916889007833188e-07,6.878424580398861e-07,-5.350305820241482e-07,-1.5198855881482037e-07,1.3460839973708657e-08,-2.537341833134949e-07,-4.143513274467518e-08,-1.2667628585119928e-07,-2.7725232012609104e-07,-8.891980906231202e-07,6.754065613868974e-07,-2.2306626943728853e-07,4.0263084379026484e-07,4.455746832494443e-07,6.652317437865261e-08,-1.8826998905678728e-07,1.8800560736545533e-07,-4.307904566711096e-07,-4.27708902998477e-09,-2.1466542386620966e-07,-1.6352003143353047e-07
9.000128001308905e-07,-1.669790590812154e-06,-1.6176037598016418e-07,8.495255693541031e-07,9.09625928759853e-08,-3.1558650683768405e-07,-2.3487821508188985e-07,2.1948126169716362e-07,-4.0768829325173895e-07,2.8989540806168373e-07,-1.8809546223650367e-07,3.624403340813045e-07,1.0600301802353252e-07,4.8600129177086654e-08,-3.746406224838286e-07,-8.063233607448301e-08,2.260198603109895e-08,-2.9502732048391223e-07,-5.0006926503746384e-08,8.17921251922129e-08,-8.168829007717291e-08,-1.6083891457686784e-08,2.1808542222072157e-07,-4.390650023034118e-07,-3.567247660598104e-08,1.371699260748985e-08,-1.6174133751959444e-07,-1.44836517330539e-07,2.042751929457774e-09,-7.873794183320418e-08,-1.384221311482282e-07,4.863912974649643e-07,-3.855168131979701e-07,-1.0923897293583091e-07,9.619484629907313e-09,-1.778595174047303e-07,-2.9174383459777177e-08,-9.123918956220435e-08,-1.9076420714802998e-07,-6.394478941183485e-07,4.857042630961043e-07,-1.604133631692267e-07,2.884471823566328e-07,3.730459068951654e-07,6.226162117923588e-08,-1.349302114865213e-07,1.3502631141730793e-07,-2.975400506443134e-07,-2.328808386009292e-09,-1.5443210140736336e-07,-1.010717038968245e-07
2.083616780939377e-05,-3.954412885406861e-05,-2.471771762656051e-06,2.0086596734263857e-05,1.5679547026956972e-06,-7.786470214295313e-06,-5.601065574840986e-06,5.21321569903365e-06,-9.188202972531697e-06,6.876953027030018e-06,-4.46024439073403e-06,8.628511344924309e-06,2.539344172678091e-06,1.1602335485259376e-06,-9.749351728120102e-06,-1.91169183328112e-06,5.359335495581919e-07,-7.132383494083987e-06,-1.1739016675455264e-06,1.937793761684829e-06,-2.5004219815040933e-06,-3.8388266755310003e-07,5.06528982323692e-06,-1.0815725322485876e-05,-8.446799258858252e-07,3.251149213360868e-07,-3.254766860588638e-06,-3.47873073661524e-06,4.969875935923965e-08,-2.3222516062228944e-06,-3.2874557462343906e-06,1.1514773526252278e-05,-8.640162437855249e-06,-2.5948864605914365e-06,2.2852413648427264e-07,-4.420238341985571e-06,-7.294889713340219e-07,-2.1585215611942635e-06,-5.021147961828979e-06,-1.5162663550868353e-05,1.1517076519116225e-05,-3.8037405035977467e-06,6.856283852657264e-06,7.653260513351628e-06,9.937147459341458e-07,-3.1823138252511348e-06,3.1985594298138833e-06,-6.666980812497878e-06,-4.004842526641311e-08,-3.662607420560041e-06,-2.0643181842286428e-06
4.3280750968023383e-07,-8.244021777813459e-07,-4.727496843377501e-08,4.2112181578540904e-07,5.67223877793558e-08,-1.4996532614798364e-07,-1.1525345894809774e-07,1.0825080313674462e-07,-2.1469549048568044e-07,1.4406734474284513e-07,-9.281966283385307e-08,1.8841054336040613e-07,5.10991090182631e-08,2.625732915157156e-08,-1.3881911592089238e-07,-3.985902542981897e-08,1.1173886732934702e-08,-1.4752353685869397e-07,-2.363303271920031e-08,4.0330444268781825e-08,-9.21706962761119e-08,-8.07280993227951e-09,1.0468734338955228e-07,-2.20730725865406e-07,-1.7627528076514858e-08,6.780378455700835e-09,-7.6080572813406e-08,-7.283917481964475e-08,1.053242954165336e-09,-5.164061240983043e-08,-6.90823988986846e-08,2.3083655257788408e-07,-1.8879294829479583e-07,-5.410688491306285e-08,4.770075654159478e-09,-9.253063048862842e-08,-1.5914648258891436e-08,-4.4893430219774995e-08,-1.140590632286391e-07,-3.161264690148732e-07,2.4011960175386095e-07,-7.93042100035482e-08,1.4343089341081401e-07,1.647965580443202e-07,3.447447139176291e-08,-6.764501511362974e-08,6.704268378701115e-08,-1.688905111352348e-07,-8.646905189232889e-10,-7.636495032907804e-08,-4.370138629364652e-08
4.894642644903772e-09,-9.261359646610411e-09,-6.229622893739766e-10,4.719489349260877e-09,5.351884002949179e-10,-1.7365797483738834e-09,-1.2998168307117183e-09,1.2172898704796736e-09,-2.327458779562403e-09,1.6192848310615664e-09,-1.042104355070042e-09,2.1326651661478232e-09,5.692712292458728e-10,2.5958610416569023e-10,-1.4731780285386624e-09,-4.4773647602252956e-10,1.2550888618414096e-10,-1.599382514834552e-09,-2.6423646686556554e-10,4.529502029488087e-10,-1.0899567984105162e-09,-9.184060033039354e-11,1.1540922505378725e-09,-2.441291731403448e-09,-1.9793995824332914e-10,7.614267418846518e-11,-8.437072230053538e-10,-8.129700531659531e-10,1.1479370904473978e-11,-5.28007304957814e-10,-7.702323578264013e-10,2.670236899290729e-09,-2.142552352472777e-09,-6.057459231143321e-10,5.333010016892168e-11,-9.53519717295614e-10,-1.7451828809536545e-10,-5.048219074376332e-10,-1.224997211799397e-09,-3.5501628262879683e-09,2.69659066090262e-09,-8.906019771140588e-10,1.609560201408676e-09,1.913354781572439e-09,4.019382834462097e-10,-7.546139526477169e-10,7.514159254393936e-10,-1.7796323532790303e-09,-1.2645331962393004e-11,-8.573850993304672e-10,-5.549611064162732e-10
8.472636575026111e-09,-1.5769733069821114e-08,-1.461658765730303e-09,8.002428674038004e-09,6.65606113159744e-10,-3.0794190368046947e-09,-2.2744900583257036e-09,2.0848743425824934e-09,-3.0032920875449047e-09,2.787036687989529e-09,-1.7620411482571565e-09,4.039949596647259e-09,9.994400185245653e-10,5.327337989975746e-10,-3.366456554467233e-09,-7.6172331092557e-10,2.1348193330568213e-10,-2.6189102764995007e-09,-4.694385156575352e-10,7.718803104345135e-10,-9.037614981875649e-10,-1.471982035961941e-10,2.148280123961787e-09,-4.261578299484641e-09,-3.37266937978761e-10,1.295765828780389e-10,-1.7295976856966716e-09,-1.3652867720200764e-09,1.8689732729220785e-11,-7.192261337629564e-10,-1.3122715036068767e-09,4.491184908943216e-09,-3.843960888440991e-09,-1.0311579320952845e-09,9.099287056049039e-11,-1.6688685331007586e-09,-3.012886153745647e-10,-8.576833026722683e-10,-2.1439296650292484e-09,-6.0381137509321654e-09,4.586358977584235e-09,-1.5147350439254238e-09,2.714426215815847e-09,3.127848531741516e-09,1.281227435930207e-10,-1.265149624200105e-09,1.2738987523488769e-09,-2.6134743336089164e-09,-3.3292736718844217e-11,-1.456950957291532e-09,-1.203298035398531e-09
1.638690729971666e-06,-3.0921904121139126e-06,-2.2183611045026414e-07,1.5678605778590598e-06,1.0291805651824075e-07,-6.186087875285759e-07,-4.5462113167518855e-07,4.107469182244158e-07,-4.662827084016266e-07,5.491897583309613e-07,-3.4524107711162044e-07,8.205984812058913e-07,2.0205794865798628e-07,1.5976254698491868e-07,-7.549316576140965e-07,-1.4951123243019325e-07,4.190144490629904e-08,-4.997705816639685e-07,-9.45341585504638e-08,1.5163588586994493e-07,-6.287852368454662e-08,-2.6636813631860925e-08,4.629521007870542e-07,-9.075298963426387e-07,-6.62636396346369e-08,2.5434299233664376e-08,-3.761336803448582e-07,-2.667388170530288e-07,3.5366317751830337e-09,-1.2875677047472134e-07,-2.5920083394032775e-07,8.514088685739142e-07,-8.090039770781561e-07,-2.0324175955616357e-07,1.7932553714033682e-08,-3.665320223497432e-07,-5.816722829114812e-08,-1.68526926176239e-07,-4.077647923004943e-07,-1.1849441049162383e-06,9.000458185603215e-07,-2.9725779189443083e-07,5.265285502071966e-07,6.152120545376778e-07,-1.0610914718038595e-07,-2.4729222822807836e-07,2.496956154434035e-07,-4.895564895798678e-07,-5.454730197018681e-09,-2.8604358684860035e-07,-2.1227553414930342e-07
1.2617068605822139e-05,-2.3553109792914905e-05,-2.078897845281503e-06,1.2015702921225296e-05,1.6209479178944514e-06,-4.277409419977884e-06,-3.389477749562101e-06,3.112211594316323e-06,-4.607330314154705e-06,4.1629697317017755e-06,-2.6307708006309005e-06,6.03889937842524e-06,1.5144679184869454e-06,1.2248585157381904e-06,-4.957341098923073e-06,-1.136539894970438e-06,3.1862327328548683e-07,-4.561959125456282e-06,-7.283988137506485e-07,1.154143968828762e-06,-6.013184965763677e-08,-2.024089722661504e-07,3.5525981976849106e-06,-6.7239765892432425e-06,-5.035526804107366e-07,1.9351026360092074e-07,-2.4659500197109785e-06,-2.0598639232510462e-06,2.8661726954835907e-08,-1.2839934813243396e-06,-1.9745780700302365e-06,6.507501562142166e-06,-5.693230231036569e-06,-1.5547448635358546e-06,1.3758761341740465e-07,-3.1371394549296066e-06,-4.828647665026817e-07,-1.2758290999663093e-06,-3.636977759175284e-06,-9.019466180856257e-06,6.850899369890927e-06,-2.2626439423294227e-06,4.031884188064273e-06,4.073856251562748e-06,-6.122059227509839e-07,-1.8896617701285117e-06,1.9025475685646603e-06,-3.891569419669047e-06,-2.077585801144498e-08,-2.1785145102522196e-06,-1.1616865790327102e-06
0.00013713806364261578,-0.0002546121432823124,-2.4555314891558014e-05,0.00012978540260556455,1.6618242371315132e-05,-4.669450910706363e-05,-3.670543402906045e-05,3.361329010923785e-05,-4.881624364311558e-05,4.5235516728639616e-05,-2.834012277162933e-05,6.837330649954428e-05,1.6407337050366276e-05,1.3530787552818742e-05,-5.432120179150168e-05,-1.2292112879196296e-05,3.444333926619476e-06,-4.4940059007220076e-05,-7.857440084649242e-06,1.2474966932063837e-05,-1.3551197556083504e-06,-2.1704242794868263e-06,3.892485708534769e-05,-7.134365414854966e-05,-5.440058282912546e-06,2.0912506456780954e-06,-2.5629238437428762e-05,-2.217283481268076e-05,3.0646743434053575e-07,-1.2960713490154477e-05,-2.1289067017415447e-05,7.111429691747465e-05,-6.125579919352718e-05,-1.67519204730488e-05,1.4839618699741772e-06,-3.1650725329359986e-05,-5.281007578812841e-06,-1.3777864553932987e-05,-4.01417619311233e-05,-9.747866642929131e-05,7.404169171737331e-05,-2.4453721504131096e-05,4.362050642741697e-05,4.300267286983379e-05,-6.35583576404106e-06,-2.035160937084896e-05,2.0557482954490263e-05,-4.0513816710722756e-05,-4.701440880483667e-07,-2.3518598166779e-05,-1.7963645193228803e-05
3.326694842611882e-05,-6.194791061662476e-05,-5.655157169411683e-06,3.1704479548077395e-05,5.240499439553009e-06,-1.0749833217005662e-05,-8.866510588894704e-06,8.180851298365332e-06,-1.2857524142454549e-05,1.0774136608633789e-05,-6.96837453566554e-06,1.3685354036049717e-05,3.910976184711355e-06,2.8400597033029042e-06,-1.1326855109288035e-05,-2.987630925810476e-06,8.377342686722686e-07,-1.3150994373746271e-05,-1.916547802163008e-06,3.0374981484194738e-06,-1.413874487397487e-07,-5.047903598835645e-07,9.827780349316118e-06,-1.878682104470027e-05,-1.3239172754578476e-06,5.089713831173157e-07,-6.108619894986849e-06,-5.4147355874724695e-06,7.457010603120047e-08,-3.334837991231185e-06,-5.186653717338464e-06,1.717436566633367e-05,-1.551790334230294e-05,-4.090676423732019e-06,3.6243932940376664e-07,-8.287079989390434e-06,-1.2893267021563834e-06,-3.354214970221034e-06,-9.818862877428797e-06,-2.3727587793148374e-05,1.8022720303129176e-05,-5.952357014233085e-06,1.0660979321944661e-05,1.015936762737714e-05,-8.193861847442746e-07,-4.957077022001463e-06,5.001783361648421e-06,-9.91851931949818e-06,-8.077970789617369e-08,-5.731087512411381e-06,-3.6264606258739272e-06
1.6476248056195214e-06,-3.0457480719464127e-06,-3.147572201327773e-07,1.5576581621381005e-06,2.677966437444859e-07,-5.226315098220531e-07,-4.3371985933844383e-07,4.010484320495726e-07,-6.60808497838372e-07,5.368668883394499e-07,-3.4024818310221927e-07,7.663956100715869e-07,2.0180195663025072e-07,1.8013811249179816e-07,-8.066623485188049e-07,-1.4663271154551725e-07,4.107121761087363e-08,-7.250809387555148e-07,-9.230840603567705e-08,1.4910944967403015e-07,-9.453234779331039e-08,-2.5173210557585958e-08,4.813827923225373e-07,-8.654130396609924e-07,-6.513937214106571e-08,2.501795557104656e-08,-3.485533586997444e-07,-2.692307944466233e-07,3.930524787996536e-09,-1.9706185674910143e-07,-2.5610940997710863e-07,8.146826506807482e-07,-8.405322072742677e-07,-2.0347224239020528e-07,1.873433881028537e-08,-5.285265317018349e-07,-6.543684294638406e-08,-1.6419262665724784e-07,-5.109279734062311e-07,-1.165655937782529e-06,8.853951408580006e-07,-2.924191181138935e-07,5.14761512065032e-07,4.7575439641812603e-07,-2.418819313978594e-07,-2.4865033644155695e-07,2.4728545470835726e-07,-6.066945114200103e-07,-7.318607013567325e-09,-2.811280555250874e-07,-2.519917658473184e-07
5.82645257295945e-07,-1.0833709010400986e-06,-1.0126350631459396e-07,5.517348124293515e-07,6.327821693626813e-08,-2.026066834660917e-07,-1.577363791955064e-07,1.4348365238983002e-07,-1.8522455018308826e-07,1.9378412197012057e-07,-1.2026988658192435e-07,3.0649258321820626e-07,7.216732515345421e-08,7.1205010452702e-08,-2.8391576486493415e-07,-5.234521195408506e-08,1.4668843011996948e-08,-1.798001441868035e-07,-3.3426225211650154e-08,5.311050420722655e-08,-6.722288833265484e-09,-7.796799001023081e-09,1.9023511884047343e-07,-3.6497068846709947e-07,-2.312806809314229e-08,8.898612989039468e-09,-9.53142145983824e-08,-9.527504977594755e-08,1.339083393229689e-09,-6.43479308754939e-08,-8.959531433933735e-08,3.1277513774764815e-07,-2.989615717039985e-07,-7.106137086454485e-08,6.270341354720776e-09,-1.234029926867133e-07,-2.2206792410664156e-08,-5.873538635686204e-08,-1.6714470531640531e-07,-4.149352982449804e-07,3.151716427880548e-07,-1.0409161919420534e-07,1.8543553160096192e-07,1.803678493022263e-07,-3.535548087217079e-08,-8.681897029526595e-08,8.749708632053544e-08,-1.765031064199407e-07,-1.572165636054557e-09,-1.0020342962628778e-07,-6.694642737931639e-08
2.2815277137470306e-07,-4.249586605621535e-07,-3.865722103114998e-08,2.1658273187239132e-07,2.666866885152235e-08,-7.852142954560887e-08,-6.177457058175029e-08,5.627102581367272e-08,-7.413521647562503e-08,7.622758042131642e-08,-4.712987574758019e-08,1.228246068364864e-07,2.8486926468181638e-08,2.8234431423626345e-08,-1.1660331199432158e-07,-2.0536578897093943e-08,5.755034725540222e-09,-6.896866666268695e-08,-1.3076859089722364e-08,2.0831996756239985e-08,-4.308038886470512e-09,-3.0719880240941806e-09,7.385991953953493e-08,-1.4727454069979284e-07,-9.075506743152182e-09,3.491097814431217e-09,-3.88813856905409e-08,-3.737958123390161e-08,5.248460150405803e-10,-2.5301829062899193e-08,-3.517080592402353e-08,1.217753775314954e-07,-1.2154576628160324e-07,-2.7847311517202385e-08,2.452417088570103e-09,-4.70925406544342e-08,-8.601734985842124e-09,-2.3056968597543276e-08,-6.411504523991967e-08,-1.6276716459172984e-07,1.2363275641601708e-07,-4.083214367556605e-08,7.242723118486986e-08,6.818100143390812e-08,-2.1241617988025697e-08,-3.4119469046222154e-08,3.43280604239793e-08,-7.061780026201592e-08,-5.332810309905867e-10,-3.9311645647356905e-08,-2.4427677809256547e-08
1.033837173702605e-06,-1.914849924483401e-06,-1.899494516542659e-07,9.71729084838505e-07,7.55951818170774e-08,-3.7675835824340383e-07,-2.8464533365022395e-07,2.548224732222841e-07,-2.3949240716997503e-07,3.5101526984962335e-07,-2.099885474294329e-07,6.485956879804353e-07,1.3257297249055202e-07,1.5862335785163538e-07,-6.087203350340886e-07,-9.265462522142199e-08,2.5952418726063388e-08,-2.445077341413904e-07,-5.958016008653772e-08,9.388769364761002e-08,1.2134728739447072e-08,-1.2186231176678713e-08,3.6526142305070906e-07,-6.955373378364978e-07,-4.081389311582124e-08,1.5720576710889735e-08,-1.390815934832719e-07,-1.6854955223756815e-07,2.364432099384902e-09,-1.154598440187837e-07,-1.5680811398919546e-07,5.701863692666351e-07,-5.663117239677673e-07,-1.250249605096486e-07,1.0993845203346423e-08,-1.9245188947974623e-07,-3.916897647837261e-08,-1.0382887549870959e-07,-2.9434536228956567e-07,-7.333149890405347e-07,5.570027200735971e-07,-1.839610775739379e-07,3.2580539060315436e-07,3.070771037417792e-07,-1.0902892028794552e-07,-1.5259278638677402e-07,1.5441449807807976e-07,-2.925839404385897e-07,-2.142133897232335e-09,-1.7717319792957225e-07,-1.04274446343126e-07
4.154666709810971e-08,-7.811806764243279e-08,-6.01102425608688e-09,3.9951534562186596e-08,6.239091835063649e-09,-1.3751107334662545e-08,-1.0980363429121974e-08,1.0255053195090503e-08,-1.9353063033217126e-08,1.375374424143697e-08,-8.749379693600085e-09,1.9269568676555878e-08,5.051681173807425e-09,3.6475438289041953e-09,-1.80373591925272e-08,-3.770998329722971e-09,1.0572662155959433e-09,-1.550919299105111e-08,-2.3527891017882117e-09,3.827706559412921e-09,-3.2601658992715445e-09,-6.615306315165014e-10,1.1789853487396793e-08,-2.4239732022644924e-08,-1.672253907369507e-09,6.423733077765576e-10,-8.756592759483748e-09,-6.920371467706175e-09,1.0109894172463804e-10,-5.133059226030584e-09,-6.5566804275366576e-09,2.1385232628633096e-08,-2.010967080818461e-08,-5.137142128575247e-09,4.5328929121303486e-10,-9.396890628853768e-09,-1.6157182538935213e-09,-4.233922530274593e-09,-1.2242976083595546e-08,-2.993216552980265e-08,2.273552002476786e-08,-7.50885159484937e-09,1.3461630561351524e-08,1.3425972056110219e-08,-4.860811617712283e-10,-6.362918379745038e-09,6.334909376967947e-09,-1.5015650447237497e-08,-1.7400220357379418e-10,-7.221490830972631e-09,-6.162140212302845e-09
1.75040735537769e-06,-3.3000276074274756e-06,-2.412940150216225e-07,1.6920971487474465e-06,3.1460566058863624e-07,-5.545437379398794e-07,-4.663591840915044e-07,4.339295660218914e-07,-7.802974163823191e-07,5.789146348216988e-07,-3.7045085419868546e-07,7.86787332910589e-07,2.1937506700916045e-07,2.0005473188861306e-07,-8.74697215736733e-07,-1.592982529503485e-07,4.4668274667080885e-08,-6.60435861343552e-07,-1.0088958002003276e-07,1.6180910485465928e-07,-6.680382467630719e-08,-2.6117610832335566e-08,5.206128057459063e-07,-1.1815535409011603e-06,-7.071848048287767e-08,2.7145340276562393e-08,-4.0402240810249944e-07,-2.9244384049540103e-07,4.235892550074462e-09,-2.176132619158003e-07,-2.80464841742993e-07,8.394566233044825e-07,-9.604590560808506e-07,-2.179890237722473e-07,1.926616472251044e-08,-4.402405459542737e-07,-6.586169811650446e-08,-1.7924710231139124e-07,-4.853822911617501e-07,-1.2645240874969025e-06,9.604922398435341e-07,-3.172214085770871e-07,5.623414745807093e-07,4.5644969116897045e-07,-1.9968692347951688e-07,-2.690282201063331e-07,2.675191889232423e-07,-6.383103499548979e-07,-3.807906093115833e-09,-3.05313616946261e-07,-1.826519197322268e-07
2.5428475837337677e-06,-4.773952435279719e-06,-3.7704826117005626e-07,2.446537312648533e-06,4.3464892384466904e-07,-8.128711874171391e-07,-6.665115252964087e-07,6.256115385564217e-07,-1.2517010681437077e-06,8.355793096787546e-07,-5.365718253899445e-07,1.1141852843487515e-06,3.08095554863524e-07,1.8441105656793492e-07,-1.1489211583580264e-06,-2.302798978130068e-07,6.457899379701594e-08,-1.0401786852064983e-06,-1.45781855628586e-07,2.341121432930058e-07,-1.0436549312438276e-07,-4.0718586932855407e-08,7.080915477392822e-07,-1.5367445467592393e-06,-1.0235378248569975e-07,3.927417590742246e-08,-6.096066027411145e-07,-4.179710855062215e-07,5.8289064332505145e-09,-2.624959848247858e-07,-4.0095051114639165e-07,1.2951579209319405e-06,-1.2962575918669585e-06,-3.139811601525548e-07,2.7686785614989058e-08,-5.750594375624277e-07,-9.790712311643322e-08,-2.5892879026698516e-07,-7.369373038883689e-07,-1.8292945164577445e-06,1.389473877815939e-06,-4.589010118120739e-07,8.162275333674487e-07,7.671585497671636e-07,-1.8721902213009495e-07,-3.841193602513914e-07,3.859731217477876e-07,-8.086745740614298e-07,-1.2837094676421979e-08,-4.411366675652131e-07,-4.248752092848414e-07
1.5152197964116872e-05,-2.8640637104844426e-05,-1.961613454576315e-06,1.466720947730339e-05,2.417571806296751e-06,-4.977791964034123e-06,-3.9708881129052695e-06,3.7401164751070198e-06,-7.992483096558563e-06,5.012860955450812e-06,-3.2207334183694675e-06,6.658490523756309e-06,1.8839595704418551e-06,1.586466499800969e-06,-7.171176294144527e-06,-1.3827266624266463e-06,3.8774283547500995e-07,-5.974674562901706e-06,-8.630089804703407e-07,1.4046874367744706e-06,-1.1961631577732392e-06,-2.4475848687874315e-07,4.2278287399057024e-06,-9.355895578907162e-06,-6.142019182116153e-07,2.3570802459020942e-07,-3.5818835021057076e-06,-2.551869662783209e-06,3.772838076584524e-08,-2.01898814120771e-06,-2.4555881470133053e-06,7.096539045788522e-06,-7.446841179400282e-06,-1.8885008903299704e-06,1.6671908817949536e-07,-3.6276495821655495e-06,-5.797958422123022e-07,-1.555239498380442e-06,-4.31931958679412e-06,-1.0979918906061214e-05,8.339996847556157e-06,-2.754447602763832e-06,4.9236492069706554e-06,3.843862208889198e-06,-9.615365941078838e-07,-2.335122900843156e-06,2.3232615573713067e-06,-5.525762916721501e-06,-4.8761556797739224e-08,-2.6508148470754535e-06,-1.928227141446232e-06
2.189254043556054e-07,-4.1576237954420084e-07,-2.556923689360439e-08,2.135365426400003e-07,4.170030308168015e-08,-6.88669468534061e-08,-5.876652247895191e-08,5.471488832958333e-08,-9.876460750104573e-08,7.316511139053223e-08,-4.66705555465404e-08,1.0135605466332391e-07,2.7884127203505318e-08,2.5675116672928525e-08,-1.1686751999682208e-07,-2.0086609268202492e-08,5.63209591287977e-09,-8.189856229080832e-08,-1.2787410116235505e-08,2.040785138596085e-08,-5.211577878035364e-09,-3.2148545070020778e-09,6.629980900887553e-08,-1.582349856592146e-07,-8.912842714310499e-09,3.421832742363551e-09,-4.9436124702253126e-08,-3.667190702068577e-08,5.19301354376915e-10,-2.5393342248208868e-08,-3.530745039649881e-08,1.0529221205623731e-07,-1.3193569234399386e-07,-2.746534357596183e-08,2.4259347407833604e-09,-5.469291715741975e-08,-8.257640932488248e-09,-2.260961821976574e-08,-6.057527327848133e-08,-1.5942695875658123e-07,1.2109564240145308e-07,-3.999421199008831e-08,7.021438771608157e-08,5.416323774919117e-08,-4.129796506469233e-08,-3.399900003990818e-08,3.3740633594547715e-08,-8.229035366309519e-08,-2.0023034157377427e-10,-3.8515022240889134e-08,-1.688800710573828e-08
1.8483377090188777e-07,-3.4852195847798965e-07,-2.5153206111512308e-08,1.7889977239666218e-07,3.428600528171478e-08,-5.805109880321153e-08,-4.918255918946713e-08,4.586703126658056e-08,-8.356467667075582e-08,6.108267770842429e-08,-3.916837463007598e-08,8.211680348607256e-08,2.2749875296442836e-08,1.5807356565456867e-08,-8.796389788078065e-08,-1.6820512131419506e-08,4.71689075565902e-09,-7.441337109643567e-08,-1.0659782896171061e-08,1.7100850478596664e-08,-6.99739241806351e-09,-2.8405650096704473e-09,5.3779560348294e-08,-1.197442740009036e-07,-7.472839323787096e-09,2.8679152043796644e-09,-4.349894600477268e-08,-3.050105594164412e-08,4.211364342269733e-10,-1.892640426887974e-08,-2.9318556734814965e-08,9.32169306226144e-08,-1.0175556649225718e-07,-2.2953046404530288e-08,2.024654702943159e-09,-4.303117889823203e-08,-7.054393169184276e-09,-1.8924586610436776e-08,-5.254754879580809e-08,-1.335940931406541e-07,1.0147382008715221e-07,-3.351372015976796e-08,5.925784990971559e-08,5.2978569031206036e-08,-2.2411650314730878e-08,-2.8127123820665255e-08,2.8195647727918168e-08,-6.071778728830154e-08,-7.310713609829718e-10,-3.2236334993595176e-08,-2.6490303032679406e-08
3.799394466159209e-08,-7.095303832306139e-08,-6.235365950880723e-09,3.638611643315423e-08,7.0839655074157814e-09,-1.1747389103384018e-08,-1.0146804026412448e-08,9.363075638113057e-09,-1.4821191525673169e-08,1.2422873912010994e-08,-7.956201043222566e-09,1.6733920598421647e-08,4.770251686581427e-09,4.837380908319615e-09,-1.970134717653171e-08,-3.424004506960599e-09,9.599605856334147e-10,-1.3508984082050236e-08,-2.189338735231982e-09,3.4780756024548486e-09,-4.0806649144198353e-10,-5.2897966637092e-10,1.1774332530174487e-08,-2.6393901941323728e-08,-1.518507709240145e-09,5.831073253472212e-10,-8.238880954151061e-09,-6.249749149568219e-09,8.82027511262564e-11,-4.329540962885445e-09,-6.005540645333222e-09,1.8223336033615024e-08,-2.159420010930643e-08,-4.680007655223415e-09,4.1334408369660183e-10,-9.295534405256071e-09,-1.3645433801290498e-09,-3.8591986870923996e-09,-9.757776879463111e-09,-2.7169139715895248e-08,2.0636813579405692e-08,-6.815712611346521e-09,1.200408436481081e-08,9.258954960945823e-09,-6.243186385485077e-09,-5.7736758807772864e-09,5.744374874304596e-09,-1.3555726496098794e-08,-7.359374797111062e-11,-6.558337599278583e-09,-3.7509717609898985e-09
2.543719033792386e-09,-4.787825221268119e-09,-3.585668006046513e-10,2.4530736043804412e-09,4.1723536695287766e-10,-8.252168311171812e-10,-6.944228742702157e-10,6.346182141820121e-10,-8.643555586494132e-10,8.567620900633592e-10,-5.32893827201298e-10,1.349035864473293e-09,3.20778629687279e-10,4.126580108779157e-10,-1.1361702737616142e-09,-2.3079784195360983e-10,6.473064429573796e-11,-1.149899361112142e-09,-1.4976676596242702e-10,2.3490035822297103e-10,6.211915309164251e-11,-3.6402953305636564e-11,8.277367897600051e-10,-1.3670769032427143e-09,-1.0303049133974899e-10,3.945654420985467e-11,-7.84088800860558e-10,-4.2800112456328965e-10,6.378281127893803e-12,-3.5298116657914246e-10,-3.96763678254703e-10,1.3879107950701482e-09,-1.2192769688865352e-09,-3.171202433100417e-10,2.806987737316176e-11,-6.745864914607927e-10,-9.624509425461179e-11,-2.6008509880787337e-10,-7.13096533121982e-10,-1.8350641090199564e-09,1.3938562766471245e-09,-4.603483850156402e-10,8.107440988122719e-10,8.680939545119431e-10,-3.026234912580462e-10,-3.8669224653292057e-10,3.873414974295376e-10,-8.419764454932814e-10,-3.8168949382263803e-11,-4.380328949208505e-10,-9.883782364767353e-10
1.6499736497225965e-06,-3.1123793582712207e-06,-2.22323753738183e-07,1.5951420442787258e-06,2.750964760213085e-07,-5.345503396180391e-07,-4.3932415065668115e-07,4.0980702969702025e-07,-7.445905901840963e-07,5.444788507561699e-07,-3.501139677624629e-07,7.202786492282112e-07,2.0349238931104677e-07,1.4827348443509235e-07,-7.811619719217323e-07,-1.5010249084229208e-07,4.209805933154219e-08,-7.272247519354685e-07,-9.290753401107111e-08,1.5261239261274944e-07,-1.7122151112270754e-07,-2.6485836392688525e-08,4.638699027796578e-07,-9.981871444766517e-07,-6.674797110770565e-08,2.5615007070227588e-08,-3.9249701483268423e-07,-2.746102634389912e-07,3.883882248609112e-09,-1.9167987963868777e-07,-2.630344118637584e-07,8.315924077642523e-07,-7.788079725512457e-07,-2.0621315244272484e-07,1.8244344762143505e-08,-4.3929817193665137e-07,-6.669362622386933e-08,-1.6839725257889684e-07,-5.183517705454448e-07,-1.1931395979849024e-06,9.062708541859442e-07,-2.9931373205478883e-07,5.368735213843303e-07,4.917737236426478e-07,-3.7736527872347745e-08,-2.5749515351407903e-07,2.5329665124993147e-07,-6.857214243449494e-07,-8.036947284474934e-09,-2.8770232556345556e-07,-2.700238313377879e-07
5.907832947570162e-07,-1.1122969043053413e-06,-8.282668569366489e-08,5.700547782721938e-07,9.957347094330515e-08,-1.9033718724166941e-07,-1.578704895073301e-07,1.466209146979631e-07,-2.52671854584578e-07,1.9464763764270093e-07,-1.2505089977872975e-07,2.5866136708700505e-07,7.282168592427305e-08,5.720204813122905e-08,-2.752715017492544e-07,-5.3615923793966625e-08,1.5037730073501935e-08,-2.687761364169307e-07,-3.338327315346919e-08,5.453631814592135e-08,-5.235248829433826e-08,-9.295408636149576e-09,1.6891597500754938e-07,-3.61237257672114e-07,-2.3854816521348146e-08,9.153172479932423e-09,-1.4258414519301493e-07,-9.852107481252024e-08,1.414753736663686e-09,-7.260337334543698e-08,-9.402327495856234e-08,2.958966214322092e-07,-2.841052870121653e-07,-7.367897870753388e-08,6.5197211117919835e-09,-1.5683598602302584e-07,-2.40889246025072e-08,-6.012530527826509e-08,-1.886520604969399e-07,-4.2632256901702014e-07,3.2382105114467063e-07,-1.0694825601897787e-07,1.9179514271019855e-07,1.7720292831093296e-07,-1.3318112260619809e-08,-9.290015957235059e-08,9.072713710373952e-08,-2.654887113770965e-07,-2.7283604675964755e-09,-1.0280240189247794e-07,-9.337623712486004e-08
8.84831930182235e-06,-1.6506625450833642e-05,-1.466307264682116e-06,8.415040302506002e-06,1.0589659509678132e-06,-3.038048476510657e-06,-2.2902741759269106e-06,2.160098069228785e-06,-4.51875906525455e-06,2.883491503677798e-06,-1.8549443221782723e-06,3.7988411254331688e-06,1.0866349467443802e-06,7.153805714884022e-07,-4.5431351352496975e-06,-7.957624846133458e-07,2.2315353237050413e-07,-3.6500418501779317e-06,-4.997412877659096e-07,8.08724985423675e-07,-5.549207329687908e-07,-1.387410487170341e-07,2.473750195029453e-06,-5.467630210296126e-06,-3.536107681680625e-07,1.3572119744915648e-07,-2.0428737422957833e-06,-1.4501202753056477e-06,2.0337203454420154e-08,-9.64421091655267e-07,-1.3694339501623007e-06,4.696528127758331e-06,-4.6345044654545304e-06,-1.0877415534917006e-06,9.597648539269587e-08,-2.103497014463834e-06,-3.3659834639978353e-07,-8.951196312721049e-07,-2.5233591088067957e-06,-6.322190700966883e-06,4.802134785039791e-06,-1.585999238198457e-06,2.802633663154393e-06,2.9307885950768604e-06,-9.018805962402284e-07,-1.344010510416448e-06,1.3376590032139901e-06,-3.169501054504026e-06,-4.4728579359357776e-08,-1.5244208933918462e-06,-1.4769711191692172e-06
1.836784541277004e-07,-3.442096046748765e-07,-2.8048349460877505e-08,1.7545803268431783e-07,2.1159314468218292e-08,-6.38593154049666e-08,-4.696598107565543e-08,4.479521487659687e-08,-1.0678987857799959e-07,5.907155668755286e-08,-3.893299824056423e-08,6.595514992108007e-08,2.3099590014863043e-08,1.6533804161054545e-08,-1.0600614485926779e-07,-1.6623481688371434e-08,4.65964138870684e-09,-6.512322209181181e-08,-1.0604329203544736e-08,1.6880602436251528e-08,-3.1243849133909447e-09,-2.6937753312474974e-09,5.292606224790319e-08,-1.4154650172162988e-07,-7.372583117524048e-09,2.8308145723499423e-09,-4.030324313142844e-08,-3.016783997047024e-08,4.1967112008314895e-10,-1.9243120189716548e-08,-2.865185187119132e-08,9.324367959645307e-08,-1.255841035770915e-07,-2.2608859488715576e-08,1.992035859938996e-09,-4.008737184345734e-08,-7.062131836682594e-09,-1.8670392098707426e-08,-5.316851494177477e-08,-1.3189711958887823e-07,1.0018485300157641e-07,-3.308801348819463e-08,5.764239648799935e-08,5.834204735072693e-08,-3.700799126535784e-08,-2.919065471996336e-08,2.8201295686371255e-08,-9.253507429992181e-08,1.2264233662791808e-10,-3.183622421100675e-08,-7.709217195596972e-09
1.643611215663912e-08,-3.081139107944057e-08,-2.4884652621645747e-09,1.572512719774734e-08,2.0425909646177145e-09,-5.641113037387268e-09,-4.211064796955715e-09,4.011438637861286e-09,-9.464024000354962e-09,5.290264736380444e-09,-3.484707183495053e-09,5.929432074549452e-09,2.0700653497269347e-09,1.5346834277855838e-09,-9.46568716756842e-09,-1.4892371630130549e-09,4.173586381226572e-10,-5.3059742409239946e-09,-9.513599769142255e-10,1.511491189588049e-09,-1.8371252989462818e-10,-2.386467642438837e-10,4.798845251944421e-09,-1.262927095794776e-08,-6.601822132550334e-10,2.534563627424087e-10,-3.6914424150057923e-09,-2.688568382242762e-09,3.6899038014722507e-11,-1.5975636286196666e-09,-2.5750315032996574e-09,8.207809595065557e-09,-1.1215501310965466e-08,-2.024981718458749e-09,1.7843688668156615e-10,-3.632395028780223e-09,-6.268990707324924e-10,-1.672436106975751e-09,-4.6888776471336725e-09,-1.1807943972141595e-08,8.968938326986823e-09,-2.9621678671670836e-09,5.159591693293064e-09,4.851582029057114e-09,-3.528358561559312e-09,-2.6199533624716474e-09,2.5270606833665555e-09,-8.441227543736502e-09,1.9088502430287386e-11,-2.8478956310744136e-09,-5.174934350363869e-10
1.3999386518376205e-05,-2.5877311655827115e-05,-2.6646057364322984e-06,1.3197196048940597e-05,1.8038596992221672e-06,-4.6852086993021374e-06,-3.529962153795094e-06,3.3671838693581467e-06,-7.969811850202e-06,4.43692031453295e-06,-2.9240790487317114e-06,4.958605419454968e-06,1.7149736496952075e-06,1.5008970885561895e-06,-6.840633757013576e-06,-1.2469607759817103e-06,3.4969502546272845e-07,-5.638507147087149e-06,-8.004825049079022e-07,1.2681166103638776e-06,-4.1377560977336486e-08,-2.0392706048737598e-07,4.1239137867327354e-06,-8.982072596587199e-06,-5.537980786835832e-07,2.1261471195718883e-07,-3.081706536683573e-06,-2.3440233839129983e-06,3.804649467956413e-08,-2.2531115426369643e-06,-2.1323507142092377e-06,7.551414901004977e-06,-7.237064654388276e-06,-1.6999899357422766e-06,1.4998745340419166e-07,-3.10425860103891e-06,-5.086714556715496e-07,-1.405405041814095e-06,-3.70546455888029e-06,-9.905663006166799e-06,7.524026265693135e-06,-2.484957307477088e-06,4.4775366869714996e-06,5.136602331752806e-06,6.924084737361932e-07,-2.142832287830581e-06,2.10320486776797e-06,-5.803827954620789e-06,-7.73733510412751e-08,-2.3882211589866203e-06,-2.4722316118954517e-06
1.694884252587152e-06,-3.116217558973267e-06,-3.4576250677430594e-07,1.592917418075024e-06,2.5417017647835985e-07,-5.45127864832585e-07,-4.221727194428216e-07,4.0448998781233133e-07,-1.0030804941531829e-06,5.279840973766256e-07,-3.535268200177405e-07,5.204732752228928e-07,2.0978069308967026e-07,2.0077438112612892e-07,-8.964714129606934e-07,-1.5011001821982458e-07,4.209855394583046e-08,-6.914200806646537e-07,-9.594295549080982e-08,1.5269349529884407e-07,-2.561104387135017e-08,-2.414986431917866e-08,5.007558103043887e-07,-1.1208734386411077e-06,-6.676368839601941e-08,2.5610651438774655e-08,-4.1277338774287004e-07,-2.8153343875053904e-07,4.4775820042330864e-09,-2.6412421041544323e-07,-2.5984788544441023e-07,8.680009541801141e-07,-8.454459964206576e-07,-2.0612979850958938e-07,1.8250490970385682e-08,-4.393730193623493e-07,-6.38789981431791e-08,-1.6882391067065074e-07,-4.810417768665625e-07,-1.1926506212636322e-06,9.058994430353864e-07,-2.991910662346457e-07,5.462318177581777e-07,6.122987285041332e-07,2.297777836637166e-07,-2.5668604879391473e-07,2.528961212425683e-07,-6.68773249862264e-07,-8.918158130418111e-09,-2.8754222935453425e-07,-2.889223535539586e-07
8.061165955708453e-06,-1.4847331843662196e-05,-1.605434034910389e-06,7.596117953198998e-06,1.271035929207342e-06,-2.5667958271237464e-06,-2.0101810081709973e-06,1.926708249706278e-06,-4.805435840693393e-06,2.5103023499087036e-06,-1.6860732854608338e-06,2.410125054650955e-06,1.0036781193597226e-06,1.0181264410283258e-06,-4.296624885603248e-06,-7.152735876590982e-07,2.0060143217549635e-07,-3.3151886907542853e-06,-4.5769373945924276e-07,7.276143963713824e-07,-9.863853417133154e-08,-1.1159507957249665e-07,2.456048097643429e-06,-5.400701581583786e-06,-3.1825328590144035e-07,1.2205672269850947e-07,-2.018210962730117e-06,-1.3307968933735715e-06,2.0352031630912086e-08,-1.147352657907322e-06,-1.24063893903215e-06,4.0959244206793426e-06,-4.078442323470105e-06,-9.817832629703617e-07,8.691086810565475e-08,-2.0720534966438254e-06,-3.045967525902036e-07,-8.044588881413486e-07,-2.294914439323792e-06,-5.68329979034798e-06,4.316853588877897e-06,-1.425725601185497e-06,2.6025393940720868e-06,2.862761206000206e-06,1.0533634578480132e-06,-1.214566228121447e-06,1.2032748408791592e-06,-2.991396235189045e-06,-4.165195190640837e-08,-1.370001395990986e-06,-1.3586090633941284e-06
1.6878056580879843e-05,-3.098431603921737e-05,-3.510461048377406e-06,1.5852267079256392e-05,2.6970585267257028e-06,-5.331970944635941e-06,-4.196772083830246e-06,4.020858300541867e-06,-9.983630856719881e-06,5.23438111373102e-06,-3.5183499047178172e-06,4.9908541696753224e-06,2.0965186801234853e-06,2.1712087696654308e-06,-8.963032097853962e-06,-1.4920773061890572e-06,4.184736584633428e-07,-7.0534272658006174e-06,-9.560316047611249e-07,1.5180889353867587e-06,-1.535260749446585e-07,-2.3044250499485965e-07,5.207095124543269e-06,-1.0992758544004651e-05,-6.644433043513819e-07,2.5471270343745085e-07,-4.425931683820767e-06,-2.788038639275581e-06,4.316909426611255e-08,-2.511867659548229e-06,-2.5871580061311147e-06,8.623831414383637e-06,-8.021971203924152e-06,-2.052101664745183e-06,1.8183434977772028e-07,-4.491536877706597e-06,-6.412366422397737e-07,-1.6775457065849076e-06,-4.864039239532399e-06,-1.1857601165346756e-05,9.006656350073692e-06,-2.974624984378437e-06,5.4725502275751564e-06,6.1909404148906235e-06,3.2152806829161974e-06,-2.526842365114284e-06,2.5086887365219498e-06,-6.075891432096068e-06,-1.1336250093638842e-07,-2.857476070380937e-06,-3.413686031573914e-06
1.8149512501692136e-07,-3.3738929676909074e-07,-3.161661156029672e-08,1.7293097685618519e-07,3.1522712891289934e-08,-5.70062460348504e-08,-4.593862939478869e-08,4.387314211281506e-08,-1.057803541460965e-07,5.71860384126411e-08,-3.831784200615592e-08,5.6098489247424416e-08,2.2581353451032318e-08,2.0511643944477223e-08,-9.451890197478983e-08,-1.6271512311041644e-08,4.5624520336179485e-09,-7.164703383625555e-08,-1.0426148045158067e-08,1.6542643951177054e-08,-1.3394964130545256e-09,-2.542907883931152e-09,5.576167775583685e-08,-1.22651334504026e-07,-7.2360212914981165e-09,2.7752203424583267e-09,-4.5641040532519156e-08,-2.985177500596222e-08,4.313614720369966e-10,-2.1884159393044265e-08,-2.8139927700506973e-08,9.319713649718822e-08,-9.981928350325859e-08,-2.2313607835486976e-08,1.9753920436537367e-09,-4.664997141178514e-08,-7.29916757409806e-09,-1.821776597079092e-08,-5.716957443791421e-08,-1.2922778260155417e-07,9.81573096062365e-08,-3.2418377498292606e-08,5.8084125743922736e-08,6.000771188726273e-08,-1.5728781963847622e-09,-2.79363407293688e-08,2.749203764743331e-08,-7.563033859639527e-08,-6.228370463192486e-10,-3.115220260774364e-08,-2.3813259510881966e-08
1.6186583891730756e-07,-3.015376306130468e-07,-2.7226065406453477e-08,1.542023358680119e-07,2.3960877590320908e-08,-5.313615920780386e-08,-4.0717812646024876e-08,3.9061840672481736e-08,-1.001067534264958e-07,5.0781215952859334e-08,-3.429959477318315e-08,4.606394225913392e-08,1.998360170985177e-08,1.9332551058034387e-08,-7.603324947784163e-08,-1.453950376674934e-08,4.077388822579535e-09,-6.704767445624867e-08,-9.154385413392075e-09,1.477762122391519e-08,-9.052083027165558e-09,-2.2997954295061086e-09,5.0763971402181194e-08,-9.625858940187456e-08,-6.4711495657374265e-09,2.481236569581972e-09,-4.213722830070998e-08,-2.665569014535346e-08,3.810523707033565e-10,-1.925746967980709e-08,-2.510086940784408e-08,8.512899462114007e-08,-8.074585255530287e-08,-1.989633856380518e-08,1.757811416047666e-09,-3.942493466701178e-08,-6.49288713177375e-09,-1.629703165542092e-08,-5.0664120974194054e-08,-1.1551981267566018e-07,8.774517205345089e-08,-2.8979564768966323e-08,5.145379737895547e-08,5.6159942416967826e-08,-1.0014511296793766e-08,-2.442396900119584e-08,2.4420573039908672e-08,-5.49203096391023e-08,-1.0487109969780889e-09,-2.7822412990366395e-08,-3.207722055238003e-08
1.2817673142678295e-08,-2.3933635545637823e-08,-2.081973378983893e-09,1.222916556929346e-08,1.806856915747064e-09,-4.26625547387424e-09,-3.232943687470502e-09,3.1028215890355902e-09,-7.919750169301305e-09,4.056145054612969e-09,-2.7161745329451897e-09,3.970454377489526e-09,1.5901786868299795e-09,1.447977557802558e-09,-6.320407986281221e-09,-1.1540224867141899e-09,3.236282143074039e-10,-5.332684627082925e-09,-7.32685123250191e-10,1.173450263494079e-09,-4.303981816342634e-10,-1.8658711897020645e-10,3.86820554805199e-09,-8.283255987023584e-09,-5.129184594711719e-10,1.9684789436842085e-10,-2.9970155607427926e-09,-2.1246339952687585e-09,3.1015009280229405e-11,-1.6202222204870307e-09,-1.9813433453036568e-09,6.8528235452841244e-09,-6.917744086771139e-09,-1.5755730083083523e-09,1.3908151681134395e-10,-2.963613752272395e-09,-4.897519265080009e-10,-1.2977262630641451e-09,-3.6811785074041415e-09,-9.169137925169743e-09,6.964585261964823e-09,-2.30019093888322e-09,4.084982319654222e-09,4.4706677543808345e-09,-7.647773259288005e-10,-1.957543769552906e-09,1.9414654448140244e-09,-4.784371933041235e-09,-6.145303730185177e-11,-2.2100015943336297e-09,-2.0689686820113596e-09
9.532370828474565e-10,-1.8011649211885802e-09,-1.2433162435636355e-10,9.205624200325898e-10,1.3345081097617347e-10,-3.226015553089644e-10,-2.422301522650317e-10,2.332921983765163e-10,-6.151326594158073e-10,3.083422005183166e-10,-2.0402587682200193e-10,3.3412605527616274e-10,1.2053229750016732e-10,9.302737807187021e-11,-5.304649259166076e-10,-8.705463598294239e-11,2.4402196294136096e-11,-3.2596906831685295e-10,-5.5254866806101143e-11,8.838945217675105e-11,-2.8608320451822906e-11,-1.3551395784170321e-11,2.884392277643968e-10,-7.478914531452839e-10,-3.862001636362767e-11,1.4822399064518064e-11,-2.2239733586481885e-10,-1.5844356905677384e-10,2.2247775784773465e-12,-1.0599741324245386e-10,-1.5031947945705714e-10,4.864025573143722e-10,-6.31445922087003e-10,-1.1895942197180073e-10,1.0532545692695487e-11,-2.3727193621733315e-10,-3.956489430654485e-11,-9.714787446989806e-11,-3.1318845272666725e-10,-6.904960018665089e-10,5.244787805889697e-10,-1.7321940838827847e-10,3.0603836512000976e-10,2.9220532429597637e-10,-1.1275498786097672e-10,-1.537133739391355e-10,1.4810807494035632e-10,-5.065844953614026e-10,-4.164621792511591e-13,-1.665735889855108e-10,-6.355846584374643e-11
1.4538922089253445e-09,-2.7213466890113205e-09,-2.2637823678787913e-10,1.3937010871840005e-09,2.379973505754938e-10,-4.684021804555841e-10,-3.676038533064146e-10,3.5293983595695327e-10,-9.012301321845544e-10,4.608016175725676e-10,-3.0906084115917827e-10,4.4546074057534673e-10,1.810989232314361e-10,1.4354612105775402e-10,-7.647199021933205e-10,-1.3124571171630511e-10,3.6802734296758554e-11,-6.051520417668317e-10,-8.343475920486825e-11,1.3347737054508587e-10,-4.3707273920295054e-11,-2.2090677783634524e-11,4.160956428189279e-10,-9.837808068665778e-10,-5.830763108993948e-11,2.2383186741871998e-11,-3.288315903711554e-10,-2.411614494532894e-10,3.492079142587062e-12,-1.794869783458948e-10,-2.256174273872106e-10,7.696764065042813e-10,-8.314858899890613e-10,-1.7984296235889318e-10,1.590411691361245e-11,-3.6683216748241874e-10,-5.7218004248942405e-11,-1.4731367044947962e-10,-4.3889787102482366e-10,-1.0427668281121867e-09,7.92052485414168e-10,-2.6159087462382627e-10,4.597795524582821e-10,4.855250630890648e-10,-1.9883188706115347e-10,-2.2577846072271735e-10,2.2164137077232468e-10,-6.16801504821069e-10,-2.71302578910137e-12,-2.5154507032538637e-10,-1.4175444521831571e-10
1.5033890875833729e-07,-2.798266540946104e-07,-2.5766341167243638e-08,1.4317185586894483e-07,2.353290370176279e-08,-4.862247582180778e-08,-3.779394319563539e-08,3.6276162502717044e-08,-9.243900828456175e-08,4.761267178685311e-08,-3.171949867496131e-08,4.885308802953174e-08,1.869988077404403e-08,1.4875084152907324e-08,-8.129425233756788e-08,-1.3512409810173222e-08,3.787734135057465e-09,-5.028650470418737e-08,-8.56584588242904e-09,1.371741397135693e-08,-4.932337111566312e-09,-2.2081963478830094e-09,4.365315959619123e-08,-1.054950011365076e-07,-5.994195159783521e-09,2.300648568219922e-09,-3.453023111768221e-08,-2.4841012500980328e-08,3.670522523666726e-10,-1.901871023903887e-08,-2.3389815479136704e-08,7.589172986123458e-08,-8.783096409461765e-08,-1.8510821350864332e-08,1.638996819044846e-09,-3.893886480312372e-08,-6.183107512636143e-09,-1.5082433366541773e-08,-4.91457977176372e-08,-1.0717217135502395e-07,8.140456945936356e-08,-2.6885456349671194e-08,4.7850053126478757e-08,4.632549351869384e-08,-9.632040009486715e-09,-2.3733385546679837e-08,2.2940033145990598e-08,-7.566860167693568e-08,-1.552635704605163e-10,-2.5849319473206442e-08,-1.1850336228919842e-08
0.00017586460700451913,-0.0003279673924970701,-2.9216939193957614e-05,0.00016790886151441783,2.8541181469223918e-05,-5.650116985202887e-05,-4.469144259364061e-05,4.265650055320089e-05,-0.00010235201753892436,5.610822307264881e-05,-3.71122959233274e-05,6.0915366913067815e-05,2.1704687953716957e-05,1.6135314649348505e-05,-9.057324896311288e-05,-1.583056259172097e-05,4.438215109770779e-06,-6.333956055581498e-05,-1.0117288745798765e-05,1.6079614085528534e-05,-2.1644203952538028e-06,-2.680810565684752e-06,5.0131790605926096e-05,-0.00011494324587566212,-7.026020860412568e-06,2.696819028349907e-06,-4.032607486495099e-05,-2.91280064686442e-05,4.3148846516519736e-07,-2.2391242633640043e-05,-2.7425631254127725e-05,8.967689072068514e-05,-9.647389992219648e-05,-2.166834091497144e-05,1.9169446377250876e-06,-4.42812888722794e-05,-7.141479522993338e-06,-1.7701533099516986e-05,-5.6185321790455025e-05,-0.00012562698370396482,9.542225739761006e-05,-3.1515072840366706e-05,5.6330932388655966e-05,5.49799198105311e-05,-5.995166202191933e-06,-2.7551119271695237e-05,2.6812047679478784e-05,-8.24592215775708e-05,-3.479972016716817e-07,-3.0299134343677214e-05,-1.751435826914104e-05
0.00013177863356693748,-0.00024692675005474456,-2.011118668951194e-05,0.00012670636918020827,2.417492151328933e-05,-4.117551484482645e-05,-3.366193395516167e-05,3.21345346638616e-05,-7.709676739421735e-05,4.215603843297371e-05,-2.7990306066662118e-05,4.4544936156875956e-05,1.6415165378703334e-05,1.2612804350170566e-05,-6.960065800788446e-05,-1.1923642162863774e-05,3.3428872354581425e-06,-4.799590386958629e-05,-7.6161945057664554e-06,1.2112674359169434e-05,-1.844622736486562e-06,-1.9838210507843897e-06,3.7864276476743506e-05,-9.2612171834198e-05,-5.288812844114118e-06,2.0309683319742257e-06,-2.8710683007583838e-05,-2.159927504122691e-05,2.980415919859069e-07,-1.3351499852397903e-05,-2.0682617136950758e-05,6.635508969044491e-05,-7.949347778708476e-05,-1.629858632495961e-05,1.4412170514901282e-06,-3.232163622418978e-05,-5.318401875002221e-06,-1.3343669924731936e-05,-4.151297777094562e-05,-9.462724628064934e-05,7.18758437494353e-05,-2.3738407715378706e-05,4.188956910226904e-05,3.8978298464675126e-05,-1.721852581885477e-05,-2.066819215386064e-05,2.017371883705928e-05,-6.016767391060462e-05,4.117034387867336e-08,-2.283334311966322e-05,-6.549116282056957e-06
0.0033243010304055388,-0.006230711922873231,-0.000506717391407159,0.003192329803400356,0.0005601034990438655,-0.0010645819250603029,-0.0008517201622909238,0.0008117070419660634,-0.0019073505774223616,0.001076026429457489,-0.0007029201788961687,0.0012775324138819563,0.0004077302543310758,0.00023236359017814696,-0.001698227930349446,-0.00030083678624510685,8.4344337036623e-05,-0.0012097963555480569,-0.00019343165802064073,0.0003056001697894569,1.3712196178339256e-05,-5.385568864142067e-05,0.0009056770986656884,-0.002036879111870954,-0.0001334791425224653,5.124571112172092e-05,-0.0007443476347626141,-0.0005488865617732878,7.789959381245246e-06,-0.00037734620836702744,-0.0005229129552601001,0.0016986594436463954,-0.0016848006980244039,-0.0004110551179377255,3.632407563012938e-05,-0.0008081075659010772,-0.00013601631047602597,-0.0003363739227016213,-0.001071683746443334,-0.002387459526904199,0.0018134382501729834,-0.0005989235646309478,0.001081066585854623,0.000989069180255051,7.462442494536969e-05,-0.0005243623471965041,0.0005096604930249731,-0.0015843968646426193,-6.896145266218315e-06,-0.0005761044860077819,-0.00033849304752761936
0.0022991450205318126,-0.004268423697412505,-0.0004125679528540658,0.00217925426748628,0.00032384342908592725,-0.0007592982855771565,-0.0005866656904613365,0.0005569789555495996,-0.001247536259932637,0.0007381600792942438,-0.0004803604017555658,0.0008960149703195484,0.0002758544270032701,0.0001091843266585732,-0.0011472516930661973,-0.00020580223821524543,5.770919329363575e-05,-0.0008794175712572511,-0.00013200767329475357,0.00020914028912209228,-8.870247519522438e-06,-3.845656211016443e-05,0.000596226793454491,-0.0012934611139998754,-9.144566903355035e-05,3.509161576797399e-05,-0.0005523670604112264,-0.0003771299716292419,5.438207423133219e-06,-0.0002732226996847844,-0.0003590912725588764,0.0011589491564340222,-0.0010491358256355242,-0.0002807953950193347,2.4766439799060756e-05,-0.0005280591057086711,-9.209502001607645e-05,-0.00023048114162345132,-0.000719999940607935,-0.0016340648515832078,0.0012411836396517665,-0.000409925250970601,0.00074516224456612,0.0006735716689667332,0.00015749785885791473,-0.0003579755540920224,0.0003482393736032714,-0.0010610397367680333,-5.09072730957809e-06,-0.00039451489993304166,-0.0002395371190045585
0.0034937568982560956,-0.006479861314244116,-0.0006365363553260619,0.003307977204852617,0.0004937929031442897,-0.0011513937148061053,-0.0008919807653386354,0.0008457737515549344,-0.001872294588628576,0.0011166656218259622,-0.0007300488325836159,0.0013130498116438463,0.00041884532105678765,0.00018326308203219101,-0.0017131540140630133,-0.0003123381214196291,8.75849229774459e-05,-0.0013665030777550026,-0.00020109816493286544,0.00031748386352316765,2.0481726592214247e-05,-5.8563292598535294e-05,0.0009044375675526177,-0.0019313622487711498,-0.0001386855213759461,5.324584416529331e-05,-0.0007773103078992727,-0.0005710509904640831,8.135279615934166e-06,-0.00040012881305173724,-0.0005443478474446135,0.0017710803808483541,-0.0015794118299076755,-0.0004260507872321064,3.757293635325527e-05,-0.0007934401427886983,-0.00013716273531713894,-0.00035034741577188864,-0.0010578350445560128,-0.002480447317976265,0.0018840688159391938,-0.0006222506948580525,0.0011267423717519372,0.001040579802665284,0.00015724903243397674,-0.0005395682738505844,0.0005275768277667939,-0.0015226838950579474,-9.408800036161902e-06,-0.0005986850586187186,-0.00040054121597887836
0.0009492246170790131,-0.0017775007658231926,-0.0001471682606121161,0.0009093039264093208,0.0001435349782812721,-0.0003120843416122381,-0.00024105408065403772,0.0002309003003693407,-0.0005733407443581509,0.0003037553857398954,-0.0002013866503878846,0.0003249221350190639,0.00011913871906674275,9.65751808797708e-05,-0.000522793110046718,-8.580067007661428e-05,2.405774837033701e-05,-0.0003520526829057501,-5.4248010945637266e-05,8.717192155190649e-05,-4.005302575055138e-05,-1.4260854158114426e-05,0.00026772919675031843,-0.0007118549892574965,-3.8017645879948325e-05,1.4611957328137065e-05,-0.0001843032586080014,-0.00015589204163498496,2.208839647517445e-06,-0.00010066956648816976,-0.00014864642663598197,0.0004747422341387196,-0.0006228613871822437,-0.00011671430350287077,1.0286860178903865e-05,-0.00020601915530652978,-3.579217326301567e-05,-9.648439355649656e-05,-0.00026566828803978277,-0.0006810327918331994,0.0005172908275156581,-0.00017084544584687053,0.0002993972132052184,0.00029129248108195597,-0.00016319077903069376,-0.0001485793674167189,0.00014497184124975958,-0.00042812339789326004,2.565123167027159e-06,-0.00016445847563792225,2.6139758793909728e-06
0.00023604994821845856,-0.0004453373920586243,-3.195158177281029e-05,0.00022817861602504906,3.9823579137760895e-05,-7.621538223600523e-05,-6.057712600469004e-05,5.791821746017698e-05,-0.00014115606317473804,7.665395006690552e-05,-5.033124822328914e-05,8.798045521159908e-05,2.9672774331398253e-05,2.5869858194819648e-05,-0.00012195169048580156,-2.1498150113917177e-05,6.028279552903968e-06,-9.057217086048466e-05,-1.3558670868020903e-05,2.184238233274813e-05,-1.177875534510958e-05,-3.697775254308448e-06,6.584800530129639e-05,-0.00016521399456681667,-9.528311134640805e-06,3.661970384636221e-06,-4.6424335814648395e-05,-3.894004616660122e-05,5.426332492787869e-07,-2.3903398540548793e-05,-3.7353417541824385e-05,0.00011903647734662042,-0.00014343013020159658,-2.930038799755191e-05,2.5840818855562484e-06,-5.39072233048029e-05,-9.054592984955125e-06,-2.4172317436164548e-05,-6.769032167815626e-05,-0.00017067600572212677,0.00012964006035511109,-4.281617367420591e-05,7.524335295895269e-05,7.51803711790546e-05,-3.53140345511017e-05,-3.6794465843988215e-05,3.6216461470529724e-05,-9.714711305169996e-05,3.7700303642603873e-07,-4.1201182671639724e-05,-5.169776897724696e-06
5.373269601245026e-05,-9.997834941774731e-05,-9.261037088691728e-06,5.100444357188856e-05,6.7058289614135526e-06,-1.8251231131196947e-05,-1.353506119732716e-05,1.2977493689636816e-05,-3.250454848548766e-05,1.7031622708611773e-05,-1.1332329254145745e-05,1.7697673540206227e-05,6.6976714453182836e-06,5.254946452871311e-06,-2.9676343140428823e-05,-4.824923413227183e-06,1.352796990026088e-06,-1.9340281053613316e-05,-3.044295496735334e-06,4.9012572886326346e-06,-2.5236726739992947e-06,-7.968709013420364e-07,1.513329698501277e-05,-4.024850329222078e-05,-2.1377686252262837e-06,8.215719125145351e-07,-1.050142261389773e-05,-8.802652933065482e-06,1.2767890471988503e-07,-6.050424085761092e-06,-8.361380832549661e-06,2.6647662584276817e-05,-3.491660567929739e-05,-6.55448440620934e-06,5.772567147631699e-07,-1.1236524402523362e-05,-1.9739390826821956e-06,-5.431966916273144e-06,-1.4424130124936882e-05,-3.8290148794217433e-05,2.9083978030106063e-05,-9.605554417845599e-06,1.6893480400029997e-05,1.627145049592778e-05,-7.951433357436003e-06,-8.375070842827024e-06,8.153375779297188e-06,-2.454258163300846e-05,1.3172436439252493e-07,-9.247609947387562e-06,-1.241709717828957e-07
2.174007936967992e-05,-4.014252783904171e-05,-4.209376575595165e-06,2.041152706320448e-05,2.2476645154863983e-06,-7.54924388231171e-06,-5.481664526178638e-06,5.223984655826518e-06,-1.2261609370792031e-05,6.8762329348194795e-06,-4.536448888259632e-06,7.624303115800926e-06,2.6671719112343113e-06,2.10741509282095e-06,-1.1249265164418955e-05,-1.9351084657288172e-06,5.426056041222316e-07,-8.200073301075018e-06,-1.2161501088690469e-06,1.9660201054288086e-06,-1.2666509231718611e-06,-3.1404166614267373e-07,6.341158770814763e-06,-1.4854289449987433e-05,-8.590438362608943e-07,3.2979893393810767e-07,-4.832014423017889e-06,-3.594143040875367e-06,5.587783143494742e-08,-3.0677318274223436e-06,-3.331621434546868e-06,1.1220179582242873e-05,-1.2376738066480133e-05,-2.6400440929203597e-06,2.3295668816924835e-07,-4.965340340106062e-06,-8.313990029793304e-07,-2.1727701964835093e-06,-6.3111564817837094e-06,-1.536368242798613e-05,1.1669764058596504e-05,-3.854168559480866e-06,6.85955767673436e-06,7.241880790352696e-06,-1.0927759608454818e-06,-3.354210436340208e-06,3.270255179470914e-06,-9.706423863007569e-06,-4.3633710307461676e-08,-3.7080715999273534e-06,-2.1611246419157445e-06
1.3625031853581875e-05,-2.512199092634936e-05,-2.6784816009064824e-06,1.2800952792400937e-05,1.5831489002506261e-06,-4.635891039825981e-06,-3.4197829055014655e-06,3.2664794611156784e-06,-7.844591686119867e-06,4.261632493466532e-06,-2.8482446535676385e-06,4.255281887902483e-06,1.6507971480207243e-06,1.3276319632358864e-06,-6.4093907130816875e-06,-1.2109046011191491e-06,3.395670148930894e-07,-5.278616200247442e-06,-7.661709917642705e-07,1.230965070223001e-06,-5.565845233977822e-07,-2.1343785107885651e-07,3.71856475464611e-06,-8.243170461399623e-06,-5.377913493437118e-07,2.0643449194704595e-07,-3.078127670209446e-06,-2.276387592832973e-06,3.719796293305164e-08,-2.1962759037877296e-06,-2.1224992743622393e-06,6.589703404540184e-06,-6.886936153251764e-06,-1.6552662398490735e-06,1.4619031531362077e-07,-3.237345359208735e-06,-5.082629597795323e-07,-1.362211504703869e-06,-3.7887387501729506e-06,-9.616202781266914e-06,7.304161494030174e-06,-2.412342652542705e-06,4.376648369861605e-06,4.643355505287043e-06,1.1093027869752854e-06,-2.0675930907961212e-06,2.0390885836939977e-06,-5.347813920836542e-06,-4.411557464249286e-08,-2.319857602264438e-06,-1.720771423189468e-06
1.0253284222606009e-07,-1.88677609939899e-07,-2.0826477718695e-08,9.61200235790774e-08,1.2394563368378676e-08,-3.453428393709463e-08,-2.6133472846413294e-08,2.466953593033313e-08,-5.1832680425488534e-08,3.2648915413020266e-08,-2.123663881143324e-08,3.999424985734015e-08,1.237727368225698e-08,8.427732566187342e-09,-5.037990509509427e-08,-9.090689510155214e-09,2.5491285534271696e-09,-3.949351326076955e-08,-5.771553963887711e-09,9.239196724221856e-09,-3.2438472107011298e-09,-1.5703316476715805e-09,2.852344245513531e-08,-6.262891389820605e-08,-4.037706744104579e-09,1.549819269931149e-09,-2.3324486449476303e-08,-1.7201807948351652e-08,2.898471116768542e-10,-1.7650982171305854e-08,-1.5661150258917324e-08,5.359774004066535e-08,-5.012004254113611e-08,-1.2416266187335434e-08,1.0953479006211774e-09,-2.3830352462747544e-08,-3.902632557989728e-09,-1.0209899769275567e-08,-2.9602784538101878e-08,-7.218978094215546e-08,5.4833059390902053e-08,-1.8109693774732593e-08,3.264490604049784e-08,3.512997177908773e-08,4.090476873040242e-09,-1.5865610154004876e-08,1.5391529542693604e-08,-4.799529392291361e-08,-4.49688435099169e-10,-1.7411661173695026e-08,-1.5516108978700804e-08
5.130573102920616e-06,-9.564084132818263e-06,-8.61778947434679e-07,4.875846575282249e-06,6.275929214444767e-07,-1.7526844812295287e-06,-1.3153981533098604e-06,1.2478093933021883e-06,-2.793058240937713e-06,1.6561616108017986e-06,-1.0777994001354184e-06,2.0245450508435563e-06,6.338699744727789e-07,4.59853662004986e-07,-2.6937098736939363e-06,-4.613628902344073e-07,1.2935833004406302e-07,-1.9384301838426134e-06,-2.9192875101696233e-07,4.687786153340227e-07,-2.072428373343688e-07,-7.479424336736763e-08,1.5066062269474602e-06,-3.6011574529897103e-06,-2.0477510557235222e-07,7.86173951520901e-08,-1.1411206558514016e-06,-8.519434665901592e-07,1.286329928639274e-08,-6.807669497222543e-07,-7.944812525281017e-07,2.66688419568404e-06,-2.990359401141785e-06,-6.286708628355215e-07,5.5472758236459344e-08,-1.1512247782598286e-06,-2.000231660168739e-07,-5.174675762310439e-07,-1.529185646225748e-06,-3.6626981083019673e-06,2.782068878480093e-06,-9.188328356861254e-07,1.6352350955903754e-06,1.6972662694846983e-06,-2.8013923746384223e-07,-8.039930766471314e-07,7.808585499338506e-07,-2.414350123890474e-06,-1.1634220046469962e-08,-8.837879199304557e-07,-5.425544625205624e-07
2.534901753637987e-05,-4.68387117421361e-05,-4.849993860600883e-06,2.3901178895502894e-05,3.3694380855207375e-06,-8.4272920460691e-06,-6.442574713797843e-06,6.111779917343559e-06,-1.3608116952371718e-05,8.073578976333113e-06,-5.28444117010886e-06,9.495889972069174e-06,3.1119620698133794e-06,2.5581289160508376e-06,-1.2934415974909781e-05,-2.257993293117481e-06,6.331137343080778e-07,-9.709915972288543e-06,-1.4300372135776128e-06,2.294723218007317e-06,-9.668925179588897e-07,-3.7502189451890564e-07,7.299610244262379e-06,-1.656302435831767e-05,-1.0030360009674428e-06,3.8496987933415484e-07,-5.903235838799093e-06,-4.249689216459187e-06,7.054218194037336e-08,-4.151515067052327e-06,-3.8930755136931885e-06,1.3160508602810728e-05,-1.3289384748268356e-05,-3.08555894480262e-06,2.726269588778149e-07,-6.005438661957201e-06,-9.714310066200194e-07,-2.5352158403904955e-06,-7.38140818542014e-06,-1.792926913254582e-05,1.361850204211191e-05,-4.497777515841762e-06,8.112420963521162e-06,8.477360013425965e-06,9.781985867026894e-07,-3.937905715747929e-06,3.8227814449798605e-06,-1.1869435340971254e-05,-9.851421184449492e-08,-4.324430870573702e-06,-3.5648025266193096e-06
2.7552818999034704e-05,-5.0933371267886275e-05,-5.228972780263549e-06,2.604850231614499e-05,4.287230027853624e-06,-8.84333029944485e-06,-6.961224271677435e-06,6.632517628532832e-06,-1.5494026203960576e-05,8.723417584270312e-06,-5.7607226675435604e-06,9.626033424743066e-06,3.4112874376300374e-06,3.0706973145146435e-06,-1.4432052989902261e-05,-2.4560085961877886e-06,6.886702132482332e-07,-1.0384362373303017e-05,-1.5584274245516746e-06,2.496030142271155e-06,-9.001040894365627e-07,-3.99703240236704e-07,8.034449571572818e-06,-1.8743735729528756e-05,-1.09033898120945e-06,4.185612770228442e-07,-6.167069169746908e-06,-4.568017947127178e-06,7.10871329621894e-08,-3.9598757773911764e-06,-4.241592132647282e-06,1.414408798750551e-05,-1.4962635095392275e-05,-3.3621462248682964e-06,2.972888747904068e-07,-6.824358024622237e-06,-1.0668088898116603e-06,-2.7556041189881967e-06,-8.164666616681543e-06,-1.9498993064693946e-05,1.481081436769957e-05,-4.891562056410623e-06,8.77984922695135e-06,9.22511146516559e-06,1.734449454559618e-07,-4.251527407317976e-06,4.1497918383189e-06,-1.219868861320096e-05,-8.681836384034558e-08,-4.703626946578226e-06,-3.43265460231328e-06
0.00048624799109977135,-0.0008965360546352296,-9.557440335257593e-05,0.0004583456786230473,7.326851640116088e-05,-0.00015678697642551717,-0.00012165424988715555,0.00011643708449756714,-0.0002859935548380607,0.00015202250964568582,-0.00010169117040039242,0.00015097510309974656,6.041361022639686e-05,5.823916758670906e-05,-0.00025885465237417994,-4.321849946348006e-05,1.2118991759316252e-05,-0.00018640312470640658,-2.7569879824853445e-05,4.393436017962438e-05,-9.133369646642909e-06,-6.958153089111806e-06,0.00014250002111676222,-0.000335188585161479,-1.9191737399818124e-05,7.3671524031711555e-06,-0.00010938010663605621,-7.992450410997843e-05,1.2011378987713928e-06,-6.480968905367915e-05,-7.467837277226829e-05,0.000248075086654527,-0.0002678804743178099,-5.921241958010645e-05,5.238306022443849e-06,-0.00012185242364334137,-1.8372122194084037e-05,-4.857242788045779e-05,-0.00013831638402072753,-0.0003431818097793627,0.00026066997727264876,-8.609137474932521e-05,0.0001549511723188217,0.00016698004169522714,1.4419345067587365e-05,-7.427985546794988e-05,7.289207486190463e-05,-0.00020213053961082907,-1.4007336628727532e-06,-8.277383309393245e-05,-5.763914210467306e-05
0.001643337049389065,-0.0030171491021093086,-0.000341695949951686,0.001540703314084611,0.00023079413654964343,-0.0005356107040965684,-0.0004087226379782478,0.00039159232339238363,-0.0009707018486160716,0.0005104029350488,-0.00034240206748562896,0.0004948914948930839,0.00020464185740894626,0.00019518673354111958,-0.0009179221286261507,-0.0001453559375155198,4.0763312162567845e-05,-0.00065105463895648,-9.273275183584459e-05,0.00014781955303275361,-3.174756826135905e-05,-2.2968049146520022e-05,0.0004881236273292401,-0.0011356333664264498,-6.464840412833957e-05,2.4794967398796534e-05,-0.00040711118983412724,-0.00027089410921402035,4.169458411995835e-06,-0.00023860873322706342,-0.0002516856400945601,0.0008328570897367435,-0.0008652907094313261,-0.0002000313133608237,1.7739894614782564e-05,-0.0004471562268236471,-6.268167446302665e-05,-0.00016328667004303837,-0.0004768947662551999,-0.001154588966251452,0.0008769890216078519,-0.00028964283229025343,0.0005277061926991335,0.0005885851288718022,0.0001974390027469515,-0.0002491069950680981,0.0002450059928894908,-0.0006616153581257856,-7.798376198487217e-06,-0.0002784283748464749,-0.0002613552177100299
4.6173730050402724e-06,-8.491905641439519e-06,-9.506163556801816e-07,4.319974583651108e-06,5.29587823980422e-07,-1.5678645433325965e-06,-1.164622091156814e-06,1.1060238175720865e-06,-2.504713869342367e-06,1.4388463571766803e-06,-9.61368430511659e-07,1.431938144799802e-06,5.601541353181484e-07,3.2908838077657277e-07,-2.4686186414468507e-06,-4.093382799681768e-07,1.1475463517160122e-07,-1.6110201088860865e-06,-2.577142198095518e-07,4.15706790612408e-07,-2.3866532313367216e-07,-6.614911290487007e-08,1.3315351801582565e-06,-3.2714550850862592e-06,-1.821835371879574e-07,6.98135560771996e-08,-1.3017030934638071e-06,-7.574194150594917e-07,1.1573375170324549e-08,-6.236775964165456e-07,-7.132401694797398e-07,2.219978314366871e-06,-2.822933702638847e-06,-5.605575524115474e-07,4.958130127475106e-08,-1.1597397394616096e-06,-1.9320592339615713e-07,-4.561312674742668e-07,-1.5666762370558737e-06,-3.2479718241060273e-06,2.4670559961095935e-06,-8.147936502349439e-07,1.4374207105971048e-06,1.2947624524405857e-06,-6.236053788035416e-07,-7.30401135044413e-07,6.978432215214852e-07,-2.546568578914787e-06,1.1433389434460459e-08,-7.846060618826876e-07,-5.082227586343647e-09
3.2034027683205444e-05,-5.843524440209821e-05,-7.349336433032044e-06,2.965658564641876e-05,3.247563295487378e-06,-1.098010970496555e-05,-7.975348655157572e-06,7.594455065732964e-06,-1.768482136626856e-05,9.717429863498247e-06,-6.6366025840923674e-06,7.73529290463894e-06,3.869172774126003e-06,1.5418991262848525e-06,-1.8877206087080126e-05,-2.8130641188657925e-06,7.886594202667758e-07,-1.1522091197828666e-05,-1.7572138814330671e-06,2.8571868311440974e-06,-2.3224847595743634e-06,-4.560429536050304e-07,8.952884986755204e-06,-2.401439529504929e-05,-1.253704884425266e-06,4.801406677651472e-07,-9.576754106937524e-06,-5.21242741283038e-06,7.924990863454254e-08,-4.344590800049544e-06,-4.891045763740577e-06,1.530928408356898e-05,-2.0417548870476705e-05,-3.861300539949612e-06,3.4168240071901434e-07,-8.317668199621245e-06,-1.347570359069163e-06,-3.1317929903218857e-06,-1.1028890805667729e-05,-2.2327761621499688e-05,1.6959456907600403e-05,-5.6011934149597585e-06,9.883044745855475e-06,9.39944056382848e-06,-4.0026179137919086e-06,-5.045133887278336e-06,4.80522750238432e-06,-1.8061134879266077e-05,1.0052256405781493e-07,-5.396098160363388e-06,4.485020168281139e-07
1.143527906511746e-06,-2.108369058935154e-06,-2.278054203776938e-07,1.0738888097133264e-06,1.4320414662025096e-07,-3.833146208203593e-07,-2.9006987503452017e-07,2.7500009752837343e-07,-6.082917636511563e-07,3.60175296938637e-07,-2.3790980229847674e-07,3.913957611456292e-07,1.3724902900158418e-07,5.193548004911035e-08,-6.061034037233361e-07,-1.0158618738996907e-07,2.8484122782484826e-08,-4.3042884490422404e-07,-6.46002371083389e-08,1.0321816558802109e-07,-3.059689116545395e-08,-1.8065887026234686e-08,3.05571017432759e-07,-7.157645934398487e-07,-4.518700788995613e-08,1.7329307571462313e-08,-2.977781212197077e-07,-1.8727418949765802e-07,2.7900288915413013e-09,-1.4653681163286592e-07,-1.773275917576192e-07,5.618788836611362e-07,-5.896959217816828e-07,-1.387685915303198e-07,1.2251027705770436e-08,-2.68633524524834e-07,-4.60666218940054e-08,-1.1363488197332305e-07,-3.635379622953799e-07,-8.065321562480238e-07,6.126161493640919e-07,-2.023285038200925e-07,3.6419999999202634e-07,3.327084382868092e-07,2.665746856689609e-09,-1.7796663219352232e-07,1.7226098497928497e-07,-5.533398064686249e-07,-3.067941521933746e-10,-1.9480547207477802e-07,-6.995473607078375e-08
1.507722067862265e-08,-2.7144442737095194e-08,-3.995399450765792e-09,1.3723708739363356e-08,1.0773301774979009e-09,-5.31678063373813e-09,-3.737397867417307e-09,3.535643106473989e-09,-7.640078835607511e-09,4.516673193219569e-09,-3.0788554741764086e-09,3.683673074027158e-09,1.7889387873090103e-09,7.703492987322195e-10,-8.462770601575566e-09,-1.3035553179576214e-09,3.655699030731135e-10,-6.197454041428473e-09,-8.145050650119698e-10,1.3255957897847826e-09,-1.117247915387063e-09,-2.0539577449931322e-10,4.3318811114474274e-09,-1.076148706336399e-08,-5.822263998725774e-10,2.228713573061849e-10,-4.6982271708804695e-09,-2.451318346870379e-09,3.9475367646536073e-11,-2.3540586114163436e-09,-2.2529731480704003e-09,7.4159984194733225e-09,-8.863533010080758e-09,-1.7885327616677083e-09,1.5825473904695475e-10,-3.724204901744939e-09,-5.869384042854306e-10,-1.4604467373564112e-09,-4.605992823297491e-09,-1.0359872962517891e-08,7.869029688441981e-09,-2.5989014573498056e-09,4.597366556427119e-09,4.9568278717405364e-09,-1.3019273091872918e-09,-2.294079063511483e-09,2.214108740887461e-09,-7.288253899219689e-09,-1.4490275494571528e-11,-2.5024711885044203e-09,-1.1293505826959608e-09
1.762297931853023e-07,-3.153409601323418e-07,-4.9691841248433246e-08,1.5901535583886778e-07,9.81852140955966e-09,-6.31000114945849e-08,-4.3650046050797186e-08,4.112278082064586e-08,-8.472148438787741e-08,5.2312947292074536e-08,-3.5788347963662393e-08,4.1228990194015175e-08,2.0752684733133733e-08,6.785128627280982e-09,-1.0168023481817948e-07,-1.5131703292645086e-08,4.243537312589992e-09,-7.279505539410103e-08,-9.523970274249934e-09,1.5394682027920798e-08,-9.73875269677029e-09,-2.4912661759621734e-09,4.7690259163294074e-08,-1.273145662741048e-07,-6.758070399504651e-09,2.58698591724401e-09,-5.3979348218350147e-08,-2.836168242142913e-08,4.480779717407345e-10,-2.6331301713222136e-08,-2.6343680284937405e-08,8.324299571890938e-08,-1.0398437930219896e-07,-2.080709233635928e-08,1.8430037504643346e-09,-4.522021362886492e-08,-6.809627880250693e-09,-1.6958076120259494e-08,-5.340970678828838e-08,-1.2027070710027568e-07,9.135380021030311e-08,-3.017138502472809e-08,5.2994052351555137e-08,5.5917394124457016e-08,-2.3897494791681952e-08,-2.6628603197269357e-08,2.570356740307114e-08,-8.454007489403244e-08,2.912957607039792e-11,-2.9062864815131648e-08,-8.786523811744952e-09
7.993819498782028e-10,-1.5070947356420379e-09,-1.0880528776637925e-10,7.739335797124808e-10,1.5182068847867428e-10,-2.492071596415699e-10,-2.023819784730229e-10,1.951553631180133e-10,-5.189360466342283e-10,2.5631689513679817e-10,-1.711946702888801e-10,2.587432481361183e-10,1.0144112486688022e-10,6.503006096215906e-11,-4.859015616161991e-10,-7.293984810192632e-11,2.043700752517948e-11,-2.2207259648285682e-10,-4.5864098275975335e-11,7.395781535991553e-11,-4.1375645517311624e-11,-1.157015735077889e-11,2.3173822166154032e-10,-6.662787389457816e-10,-3.2297208000480396e-11,1.2399985102393243e-11,-1.7823089193592893e-10,-1.3100345009741908e-10,1.7693412613961658e-12,-7.256863045362114e-11,-1.2740632910872852e-10,3.7881839644814735e-10,-5.67846290655395e-10,-9.937432175752156e-11,8.77461657686228e-12,-1.9114363627675933e-10,-3.235263011093043e-11,-8.150210946440322e-11,-2.5183987557608714e-10,-5.777413266643592e-10,4.388339189302916e-10,-1.4493351233857975e-10,2.5473608948754144e-10,2.071444511423032e-10,-1.4135636170270084e-10,-1.3053119899481843e-10,1.2432108263904746e-10,-4.672222158588992e-10,4.243312542048834e-12,-1.3959888909759665e-10,4.7484290620616645e-11
1.1450541024250571e-32,-2.2053426464782244e-32,-9.003785873360394e-34,1.1270334204319586e-32,1.4291480284734483e-33,-4.061349146073452e-33,-3.426709098390038e-33,2.9532215005540906e-33,-6.773268481271339e-34,3.892487140686536e-33,-2.4757648293767674e-33,5.488268961514139e-33,1.899806535215828e-33,2.469618529312978e-33,-2.0421563120615374e-32,-1.0342034433218993e-33,2.475072873558833e-34,-3.783307134773391e-32,-3.6314713906113443e-34,9.437793437344904e-34,-1.7046898751542294e-32,-5.414875552509093e-35,4.80229553155615e-33,-2.240763285111171e-32,-5.10183221369947e-34,2.3247091050146683e-34,-3.647925048815849e-32,-3.348356821808639e-33,7.351408881916635e-34,-1.7966702892026137e-32,-1.7612981300205114e-33,5.6167582390255826e-33,-2.3810428259198155e-32,-1.848776941329619e-33,6.726096167096767e-34,-3.644682896532546e-32,-1.463300844532074e-33,-5.829700394227356e-34,-1.93150029805269e-32,-8.462134197609827e-33,6.427567738474285e-33,-2.1228303646218394e-33,2.9219672133261596e-33,5.139935379281163e-34,-2.462649870041506e-32,-2.5403882889440336e-33,2.800766269834713e-33,-3.4691709583862814e-32,-5.918981974852504e-34,-1.8145527410946476e-33,-1.4821353894794943e-32
2.9400601663996835e-29,-5.650101399040019e-29,-2.48368987583067e-30,2.923498108878362e-29,8.68978492745557e-30,-7.794971329585952e-30,-8.725719141723898e-30,7.563542702874475e-30,-2.5093007335148144e-30,9.795818620105642e-30,-6.386895599097817e-30,1.1885401731793704e-29,4.788661043763678e-30,5.9717369979745725e-30,-4.9179379137179563e-29,-2.6515284537144004e-30,6.268519522568704e-31,-1.0064909522081877e-28,-8.408687401225948e-31,2.3088565367987734e-30,-5.0343828267907486e-29,-1.8337848032186146e-31,1.1557208481917723e-29,-5.393770260731313e-29,-1.3047659030681075e-30,6.053047330468263e-31,-9.827214347898028e-29,-8.829310998556735e-30,2.2066723376776628e-30,-5.0251588875868603e-29,-4.5367116867876796e-30,1.423767912014751e-29,-5.772849045164772e-29,-4.714426944462563e-30,1.8202465198825285e-30,-9.783696824464733e-29,-3.8913367299448696e-30,-1.2897713857348913e-30,-5.275032922740046e-29,-2.1678550006574226e-29,1.6466336433014204e-29,-5.438330702428151e-30,7.650250078817357e-30,1.5079176060755775e-30,-5.553435332321503e-29,-6.47391271389567e-30,7.409287809897433e-30,-9.412138321261296e-29,-1.6877157119289505e-30,-4.484973732470729e-30,-4.3152418743411124e-29
3.790614689713271e-27,-6.824632564200737e-27,-9.925491542837184e-28,3.529026488363689e-27,1.4574930878052935e-27,-7.216551103811802e-28,-1.078151404784138e-27,9.098829999214233e-28,1.2165803869489045e-28,1.1567916512729823e-27,-7.723696101888767e-28,1.171177919590155e-27,6.127527608552647e-28,1.374849966987873e-27,-6.252916885763448e-27,-3.188002190041293e-28,7.545593660506489e-29,-1.2061124498743431e-26,-8.325351166080273e-29,2.4351268780790316e-28,-7.881412697881904e-27,-1.1173098280147478e-29,1.600315147387975e-27,-6.872748102552442e-27,-1.5690056565992387e-28,7.275272536432595e-29,-1.1801215766986834e-26,-1.1119844396045494e-27,3.4869659754003434e-28,-7.046431813321456e-27,-5.239918026261032e-28,2.018781865069419e-27,-6.974470522785797e-27,-5.665773861947927e-28,2.1998186780329176e-28,-1.1816130750849326e-26,-5.094635961997195e-28,-7.688057499817632e-29,-7.508336035492943e-27,-2.6067237789904264e-27,1.9799843956253802e-27,-6.539286970638313e-28,9.42153545610473e-28,7.3331876994007885e-28,-5.8140982312054855e-27,-7.750707168864422e-28,9.060389141577682e-28,-1.1661290378552752e-26,-2.223877609425705e-28,-5.164324479128239e-28,-5.8458946408611055e-27
2.49003408232449e-23,-4.430937589497774e-23,-7.345774964290575e-24,2.2912314877475552e-23,1.1366256346992225e-23,-3.673838739729916e-24,-7.008970624177504e-24,5.898124094020081e-24,1.0753494829405792e-24,7.388264983621045e-24,-5.025951807473694e-24,6.245490195029215e-24,3.934932581210656e-24,7.26997648220792e-24,-4.2502983236759815e-23,-2.0667474341950937e-24,4.890923385037273e-25,-7.822293140510464e-23,-5.246388992910873e-25,1.5328529715884522e-24,-5.336852512978308e-23,-1.1663624278195246e-25,9.344413588771653e-24,-4.5824065217501925e-23,-1.0173167227973298e-24,4.7096629596722575e-25,-7.61633365486279e-23,-7.236829789976628e-24,2.317423189855798e-24,-4.6333182250637696e-23,-3.4336961272942576e-24,1.2470228366044502e-23,-4.683055098150847e-23,-3.667327569725881e-24,1.4452771707480213e-24,-7.749199829126383e-23,-3.332917637639276e-24,-4.249306882255145e-25,-4.971849231842656e-23,-1.6898819676061113e-23,1.2835805440055801e-23,-4.239276605273131e-24,6.0457101750200265e-24,2.1939052132676093e-24,-4.021197551912616e-23,-5.010121881964954e-24,5.928719689800346e-24,-7.686198287892249e-23,-1.5531589834710173e-24,-3.1876327833271303e-24,-4.217005578399588e-23
1.9918731573119246e-14,-3.649775564779331e-14,-4.246345789730134e-15,1.8795395971356642e-14,7.528469003777356e-15,-4.0026962740894005e-15,-5.6438449230556146e-15,4.8725140556667255e-15,-1.2834425935485047e-15,6.15888649790097e-15,-4.141306555535744e-15,5.81504798281548e-15,3.0460154522584147e-15,1.9279956758557462e-15,-3.485277930747975e-14,-1.7073012434476577e-15,4.0709836195077295e-16,-6.316994741193457e-14,-4.786537370117826e-16,1.3433244662488109e-15,-3.986262613840339e-14,-1.5283156123159324e-16,6.635635660593553e-15,-3.55905876950481e-14,-8.406350747293276e-16,3.8866055216934016e-16,-6.270411201057027e-14,-5.8045060301598785e-15,1.6376894853264639e-15,-3.489152566629249e-14,-2.826016846498757e-15,1.0557141243696291e-14,-3.7327062131823734e-14,-3.0319057628710486e-15,1.1863175406677344e-15,-6.368745026237488e-14,-2.5996835484278312e-15,-6.656823231276472e-16,-3.647276258237385e-14,-1.3965177657375578e-14,1.0607504357229754e-14,-3.503336449898057e-15,4.985336777183921e-15,2.8864724820901695e-15,-3.3701156346449475e-14,-4.1526411660641025e-15,4.816151736042116e-15,-6.165107731913182e-14,-1.1481147121225525e-15,-2.7993450998271256e-15,-3.014911768173312e-14
2.670309771379972e-09,-4.976290034123709e-09,-4.4604578300976386e-10,2.5848106400151563e-09,1.2740106910259689e-09,-4.188516911653619e-10,-7.888604045035183e-10,6.654786845937021e-10,9.336543292889461e-11,8.222254923872939e-10,-5.685723219047977e-10,5.678463300706737e-10,4.1588158932092464e-10,2.827650881870273e-10,-4.702576398723261e-09,-2.3318421662568843e-10,5.515865151937837e-11,-8.836727040182928e-09,-6.002501851495461e-11,1.7568947005946183e-10,-5.88556801665104e-09,-2.7127814926517956e-11,7.762997353974144e-10,-4.750671657273055e-09,-1.146655515634842e-10,5.3526178063956195e-11,-8.789041129553793e-09,-8.184911092111346e-10,2.656662670889083e-10,-5.2754738085097535e-09,-3.914670752304159e-10,1.389301960484923e-09,-4.687471252592888e-09,-4.128734774377726e-10,1.6584663518955682e-10,-8.873940227848737e-09,-3.7211818752506806e-10,-5.751187296849171e-11,-5.473414271917725e-09,-1.906557697852629e-09,1.4481605306754393e-09,-4.782834304433798e-10,6.993161647603734e-10,4.1331841130431026e-10,-3.953288318766687e-09,-5.648433932816702e-10,6.702064654523124e-10,-8.701308709726048e-09,-1.849035877885498e-10,-3.4247609748446625e-10,-5.188869818711716e-09
6.679901672341804e-13,-1.2659759075266768e-12,-8.140742994973884e-14,6.579042121068683e-13,3.1309515720600837e-13,-1.1256314826474292e-13,-2.001193581485002e-13,1.6945120407124372e-13,1.2894054315741279e-14,2.134157231112505e-13,-1.4413828497612695e-13,1.9372000676422617e-13,1.0602291306890402e-13,6.403778340446793e-14,-1.229903937420416e-12,-5.937428821491999e-14,1.4046435212782343e-14,-2.249242796232139e-12,-1.526787228839653e-14,4.459217682818012e-14,-1.5050077892868575e-12,-6.259221068622432e-15,2.0878179027806606e-13,-1.2586196013808037e-12,-2.919882451796252e-14,1.3619152295500485e-14,-2.2329509008897493e-12,-2.0815402456783749e-13,6.723275005692945e-14,-1.3381866960854662e-12,-9.971286290749289e-14,3.479847042660807e-13,-1.2647696233491186e-12,-1.0515817122557794e-13,4.209590156712405e-14,-2.253294113889574e-12,-9.429893405061998e-14,-1.5584087046958628e-14,-1.3798936999232853e-12,-4.854557376913027e-13,3.687367235233914e-13,-1.217825381382009e-13,1.7580376039017025e-13,9.342975287198711e-14,-1.08548351389952e-12,-1.43979073798345e-13,1.6993601972630196e-13,-2.1990531318404143e-12,-4.646266491353979e-14,-8.833314640340792e-14,-1.2928729184467107e-12
2.6509533740324602e-11,-4.968647531516263e-11,-4.024537428982042e-12,2.5794041057487245e-11,1.1430994590239758e-11,-4.86047466652237e-12,-7.777492700344682e-12,6.645886816379549e-12,-5.485065126669912e-13,8.477306770678204e-12,-5.634667810265665e-12,8.890990332819062e-12,4.172136775455606e-12,2.3879013558901588e-12,-4.9407238996367135e-11,-2.328905861725957e-12,5.508250326946778e-13,-8.829254013643984e-11,-6.112132212882467e-13,1.7845197419144555e-12,-5.726691901915168e-11,-2.5217187470205226e-13,7.934220795919333e-12,-5.11530125948856e-11,-1.145209829487889e-12,5.346125843205876e-13,-8.77923092673114e-11,-8.112442584440159e-12,2.530970232625399e-12,-5.127583548305456e-11,-3.972821399947918e-12,1.2566859637922933e-11,-5.2218959932316866e-11,-4.129582458723148e-12,1.6373547346022847e-12,-8.773697925400997e-11,-3.679511855712314e-12,-6.564471793937649e-13,-5.348350292553914e-11,-1.9041599279520138e-11,1.4463392609936192e-11,-4.7768192039478126e-12,6.784488527865039e-12,2.2398961007516418e-12,-4.653793373847169e-11,-5.6554220133290915e-12,6.642420705157945e-12,-8.573208304553064e-11,-1.7829366172889871e-12,-3.5348576913340246e-12,-4.895755851815706e-11
2.4826238950076303e-10,-4.601820292854747e-10,-4.505078903141837e-11,2.385596928626948e-10,9.24131533943433e-11,-5.200337687724761e-11,-7.128230881743103e-11,6.150698177281506e-11,-1.5414315769857285e-11,7.93259854792662e-11,-5.199752378093054e-11,9.276089499233095e-11,3.8844451366815526e-11,2.0931009885246023e-11,-4.744980552923839e-10,-2.1556404968363864e-11,5.0977461348945575e-12,-8.176024538266376e-10,-5.817588830642301e-12,1.696479925251243e-11,-5.075964605176308e-10,-2.3638444950597958e-12,7.139424477448645e-11,-4.967714432287717e-10,-1.0600009130094304e-11,4.948232703178401e-12,-8.125333427013517e-10,-7.449721125683331e-11,2.22534240014484e-11,-4.610875744765193e-10,-3.7595192881532255e-11,1.020199221168949e-10,-5.165084361385474e-10,-3.828162214589905e-11,1.4970086252194763e-11,-8.034031726828724e-10,-3.379984248452546e-11,-6.652153805091527e-12,-4.867595109378951e-10,-1.7624934382396273e-10,1.3387339054610198e-10,-4.4214314034379e-11,6.14446188439312e-11,2.2275105459630294e-12,-4.801550358272023e-10,-5.2453532091093194e-11,6.10853950083432e-11,-7.844658680342066e-10,-1.6101132624647125e-11,-3.3421795415889476e-11,-4.354426828613743e-10
4.767205141541582e-10,-8.923031775152583e-10,-7.413626350136034e-11,4.629226561938524e-10,1.9207694670915913e-10,-9.418471964919784e-11,-1.3921387164405163e-10,1.1933965377594856e-10,-1.6391960868413865e-11,1.5350778338879977e-10,-1.0095994804518142e-10,1.752138480793894e-10,7.537811232961075e-11,4.4595382695767375e-11,-9.088884595828973e-10,-4.182031407910867e-11,9.891079133924188e-12,-1.5854820557538274e-09,-1.1059387132099144e-11,3.2275837853378364e-11,-1.0167121695856727e-09,-4.472774259372284e-12,1.4231332148304194e-10,-9.410981975219532e-10,-2.0565235849479317e-11,9.59612245346551e-12,-1.5745025198541099e-09,-1.4544176312936617e-10,4.5036992720927314e-11,-9.158945052624252e-10,-7.202476012143123e-11,2.1274460542317526e-10,-9.764069088897245e-10,-7.417725432705116e-11,2.932464775921938e-11,-1.5718292147273882e-09,-6.604804688563927e-11,-1.1785493450095389e-11,-9.602918736398266e-10,-3.419301935354988e-10,2.5971928941989886e-10,-8.577739143196325e-11,1.1998496618713906e-10,1.6872930265887583e-11,-9.036099433680189e-10,-1.0169742504780424e-10,1.1867161923268242e-10,-1.5256839270436823e-09,-3.160219040509936e-11,-6.415907627524433e-11,-8.616475045371473e-10
1.0344100772944979e-08,-1.9204549673053393e-08,-1.8331262193163563e-09,9.954433288969833e-09,3.828958601163605e-09,-2.185033790672334e-09,-2.9791993992706434e-09,2.5671749499519866e-09,-5.827177545142411e-10,3.304502011852008e-09,-2.171534878295408e-09,3.7947073403213305e-09,1.6215619065261185e-09,8.850579482579861e-10,-1.9788418984785948e-08,-8.996834278412583e-10,2.1276618494639052e-10,-3.412117904260378e-08,-2.414586541702309e-10,7.045157889752705e-10,-2.136402839245281e-08,-9.72125643164735e-11,3.0159441789103507e-09,-2.065751731324704e-08,-4.4241931132343566e-10,2.0647349687512215e-10,-3.388846485681787e-08,-3.1119613288746216e-09,9.34346775563427e-10,-1.9307896942924363e-08,-1.5728454555507318e-09,4.188106418768009e-09,-2.1700567910100964e-08,-1.5972362528904941e-09,6.264413744323681e-10,-3.3608183660741015e-08,-1.4130139171562547e-09,-2.724636417273193e-10,-2.0390029604008423e-08,-7.355992816383194e-09,5.587377960088077e-09,-1.8453412044645865e-09,2.5589313839997747e-09,2.1126732743389232e-11,-2.0262332745198692e-08,-2.191061825580163e-09,2.5410284199150827e-09,-3.2548916413593e-08,-6.711661158146979e-10,-1.3958625251916885e-09,-1.8146289968353915e-08
2.4551573100464093e-08,-4.5512683907404724e-08,-4.449994136705226e-09,2.359305406145816e-08,9.131345600016906e-09,-5.147659589774781e-09,-7.050691172384423e-09,6.083188932929151e-09,-1.5138113176174343e-09,7.842925505133733e-09,-5.143203715745695e-09,9.14275427626821e-09,3.841531107098061e-09,2.0681292452698696e-09,-4.6920118533699734e-08,-2.131970402444918e-09,5.04179389068102e-10,-8.086165954173388e-08,-5.74936151226921e-10,1.6767189033129614e-09,-5.0259764899202433e-08,-2.3338547278089565e-10,7.071172603243323e-09,-4.911069010804301e-08,-1.0483685012127929e-09,4.893694076189157e-10,-8.035097130664664e-08,-7.368240555174855e-09,2.201585407367934e-09,-4.561015277784744e-08,-3.7205104168876116e-09,1.0049341872953399e-08,-5.116551584108685e-08,-3.785930612970756e-09,1.4812509800343562e-09,-7.94901633767061e-08,-3.3432582756601627e-09,-6.570597791851511e-10,-4.8153721368342676e-08,-1.7431411171869236e-08,1.3240344984842488e-08,-4.372883727642143e-09,6.0743858165668875e-09,1.8592808697997614e-10,-4.759255832053669e-08,-5.188458265568557e-09,6.038277383781443e-09,-7.751275405037049e-08,-1.592145256299208e-09,-3.305769071949441e-09,-4.3057502682620015e-08
6.577687916395132e-10,-1.2201920706273783e-09,-1.1802097111107148e-10,6.325506038808838e-10,2.4670384594058496e-10,-1.3702417990934896e-10,-1.892727594325477e-10,1.6309252009702075e-10,-3.7102416257556984e-11,2.1037689284274716e-10,-1.3786704435772303e-10,2.4638187560634015e-10,1.0274355914254997e-10,5.3565584403752104e-11,-1.2492151243868125e-09,-5.7159871168695546e-11,1.3517856973914038e-11,-2.1677565296477997e-09,-1.5343419131141342e-11,4.4765379474400915e-11,-1.3570503169444177e-09,-6.387791159191477e-12,1.8728117021038865e-10,-1.3069957319432054e-09,-2.8108009957317582e-11,1.3118686315616689e-11,-2.1534128638500822e-09,-1.9784877501460518e-10,5.960200626379828e-11,-1.2295302266260595e-09,-9.964535438069299e-11,2.717765190375782e-10,-1.3599267903374089e-09,-1.0145791076443105e-10,3.9861681444733785e-11,-2.1381358978072192e-09,-8.991972412959722e-11,-1.6963298195482078e-11,-1.3003960450575635e-09,-4.673503185872958e-10,3.549844235708084e-10,-1.172405712371018e-10,1.632749488765462e-10,9.645164888425515e-12,-1.2614099822525441e-09,-1.390256311975542e-10,1.6217753080490886e-10,-2.0847644200182104e-09,-4.308382792337038e-11,-8.788262734837876e-11,-1.1729367722729657e-09
3.557062501866331e-08,-6.581383410211111e-08,-6.632685087231875e-09,3.41058835232012e-08,1.2983870326523302e-08,-7.55707972715059e-09,-1.0184760818533122e-08,8.794921786888345e-09,-2.3264358397034344e-09,1.1365639744542786e-08,-7.430342780450757e-09,1.3538251192581786e-08,5.547441814843365e-09,2.854231675238102e-09,-6.787317707838756e-08,-3.082491662642345e-09,7.289677685350961e-10,-1.1691165220780081e-07,-8.327395743499625e-10,2.4277127244514193e-09,-7.249076906992694e-08,-3.454338963166002e-10,1.005471851647538e-08,-7.089688169239924e-08,-1.5157807437292395e-09,7.074854501061557e-10,-1.1614195373297263e-07,-1.066455144776582e-08,3.204100593904285e-09,-6.618964391974419e-08,-5.360857947778793e-09,1.483858415271669e-08,-7.355765829409964e-08,-5.47258067046227e-09,2.145977935555328e-09,-1.151323789195438e-07,-4.84167702189248e-09,-9.329564464101285e-10,-6.986898292265266e-08,-2.5203075838687358e-08,1.9143454049313226e-08,-6.322501324470112e-09,8.800967060631942e-09,4.5795222613827806e-10,-6.808259597747414e-08,-7.494507960889773e-09,8.758704682871733e-09,-1.1271660249504921e-07,-2.3105679433324672e-09,-4.765332208513947e-09,-6.261908987224755e-08
1.4786470156085062e-07,-2.787150397299813e-07,-2.0161119723982727e-08,1.4471151475813402e-07,6.264194239792881e-08,-2.806225639119644e-08,-4.3047791505408935e-08,3.727910662985335e-08,-1.1797040105682662e-08,4.833076966670971e-08,-3.146396147852455e-08,5.9185097192991446e-08,2.343053060654197e-08,1.4236577763238575e-08,-2.75447973579315e-07,-1.306862362533004e-08,3.0910323297266363e-09,-4.954234745508021e-07,-3.415056003469594e-09,9.988683287803648e-09,-3.227115818999651e-07,-1.4373538590968352e-09,4.3824022226073063e-08,-2.8995946500515234e-07,-6.426948572563906e-09,2.9981036455625046e-09,-4.917070898252592e-07,-4.5719550888180865e-08,1.4575256009057797e-08,-2.920711081956265e-07,-2.2462979097974287e-08,6.776275360309982e-08,-2.977112958443271e-07,-2.31447949247215e-08,9.28233244247176e-09,-4.967670682080582e-07,-2.1041476911445487e-08,-2.748194475619203e-09,-3.134596874787064e-07,-1.0685218533995442e-07,8.116151826929849e-08,-2.6805183925105416e-08,3.766091120355208e-08,1.1014573417011167e-08,-2.76901970444142e-07,-3.166219082125522e-08,3.754492074716687e-08,-4.872998532720799e-07,-1.0433461241742447e-08,-1.9029326822398575e-08,-2.947160875423386e-07
2.671041246579763e-05,-5.055204175483482e-05,-3.3499495128802556e-06,2.6263427627760404e-05,1.3703391623456185e-05,-3.865272599276572e-06,-7.86209752649094e-06,6.765081783187387e-06,-1.3689298574949566e-06,8.649196547730373e-06,-5.733503669673257e-06,9.284116248091515e-06,4.271991134716427e-06,2.983448395584902e-06,-4.9961104364549194e-05,-2.370802015355642e-06,5.607120381909777e-07,-8.989596102351289e-05,-6.085781518815197e-07,1.7786636005696e-06,-6.0205798787079156e-05,-2.3571916509552624e-07,8.549813530003026e-06,-5.1726959492250516e-05,-1.1660479545073169e-06,5.437466140129519e-07,-8.912987053954989e-05,-8.317404714834354e-06,2.693440039140007e-06,-5.354556613906965e-05,-4.003664285532211e-06,1.3427167546786987e-05,-5.265039009764392e-05,-4.1986757905389135e-06,1.6855400691526599e-06,-9.019711916953178e-05,-3.7840171678561113e-06,-5.815190613313547e-07,-5.5690552322912575e-05,-1.938438297311417e-05,1.4723760190828795e-05,-4.862810706359183e-06,6.914485501316379e-06,2.96647324420785e-06,-4.7059217003258486e-05,-5.750322346859519e-06,6.789359389207763e-06,-8.789877558017504e-05,-1.8713977907624866e-06,-3.4969701323297523e-06,-5.237940259280269e-05
6.011932038496429e-05,-0.00011384117476216668,-7.4511195810103595e-06,5.9140938385936467e-05,3.0460118513330165e-05,-8.914822901692852e-06,-1.766567080895643e-05,1.5233569108331671e-05,-3.6717624202382104e-06,1.9518062688578566e-05,-1.2903554616528372e-05,2.139340037680166e-05,9.610952542653608e-06,6.749199894694029e-06,-0.00011184657140247446,-5.339205788228522e-06,1.2628455761936514e-06,-0.00020240599959343424,-1.3688299033769067e-06,4.002533865413408e-06,-0.0001357555335672673,-5.365240476435925e-07,1.9138777609506895e-05,-0.0001163635255723369,-2.6258152638664773e-06,1.2248785006300753e-06,-0.0002008871579598591,-1.8741646380859982e-05,6.084701950965401e-06,-0.00012081144719442332,-9.01429604432539e-06,3.0281660238870707e-05,-0.00011838932947427269,-9.453841693462775e-06,3.799660067338893e-06,-0.00020330082559426223,-8.54964709666236e-06,-1.2421524356446517e-06,-0.0001263793657523832,-4.3654712849644214e-05,3.315873010191521e-05,-1.095132124260656e-05,1.5562306085118397e-05,6.77237735522914e-06,-0.00010636296757455778,-1.294568094856203e-05,1.530516201441962e-05,-0.00019830401930229165,-4.240432160796231e-06,-7.826657988463241e-06,-0.00011917052899317108
3.0464387587890687e-06,-5.765929556587112e-06,-3.8171865593290583e-07,2.9954846325665656e-06,1.6768475840370075e-06,-3.8123862512848715e-07,-8.991886794785096e-07,7.716505265702762e-07,-1.203558720112159e-07,9.819488509842553e-07,-6.549257800109125e-07,1.0029795376420166e-06,4.8675896934603e-07,3.56300699215015e-07,-5.622773168346082e-06,-2.7041359731975893e-07,6.396733112574754e-08,-1.0247211386588743e-05,-6.884690749426433e-08,2.012468438173707e-07,-6.948730404509657e-06,-2.644184767248743e-08,9.892747362161658e-07,-5.828575305712889e-06,-1.3298523340527696e-07,6.203556579672015e-08,-1.0174059622318782e-05,-9.501012635482807e-07,3.1009186343543457e-07,-6.1406152899436404e-06,-4.5302073750775315e-07,1.592254687314932e-06,-5.88896072262086e-06,-4.787961466402634e-07,1.923904523256234e-07,-1.0294280779768561e-05,-4.309549367014961e-07,-6.797907545584708e-08,-6.32890918552034e-06,-2.2109706986241984e-06,1.6793829548582317e-06,-5.546491729774639e-07,7.936476369504769e-07,3.8400750017051837e-07,-5.17816009395593e-06,-6.559910463701937e-07,7.739401332613968e-07,-1.0015601190304612e-05,-2.134557490049597e-07,-3.9903475994029413e-07,-5.97113808078528e-06
7.439080010436326e-08,-1.3746083932762278e-07,-1.4147688475213882e-08,7.121819870315617e-08,2.8047080872764788e-08,-1.5292926818934475e-08,-2.127565873037427e-08,1.8366526088511822e-08,-4.763165534223311e-09,2.3761173792162986e-08,-1.5509501949441786e-08,2.8594546023785052e-08,1.1568514105750442e-08,5.863977995485859e-09,-1.410761925864938e-07,-6.4372779793772004e-09,1.522380684785516e-09,-2.441253211480625e-07,-1.731237536860779e-09,5.046083165644559e-09,-1.525695018654376e-07,-7.346820703164441e-10,2.0791100547528946e-08,-1.4658103801044112e-07,-3.1654722779217807e-09,1.4773071797166646e-09,-2.424621180006498e-07,-2.235034734072964e-08,6.843376815802633e-09,-1.3999152545852416e-07,-1.1083764532939916e-08,3.282306001066804e-08,-1.5095944478662276e-07,-1.1421163551098413e-08,4.505974469071701e-09,-2.41579228105959e-07,-1.0142234221861379e-08,-1.882050477565905e-09,-1.4687118954362518e-07,-5.263252692282004e-08,3.997799185683526e-08,-1.320351624181247e-08,1.8506132265274972e-08,2.5016574580356202e-09,-1.3727124477162893e-07,-1.563265253040547e-08,1.8361879328189136e-08,-2.3700605781585993e-07,-4.8636827531023206e-09,-9.88749067767758e-09,-1.3240541853925713e-07
2.3996112595073154e-13,-4.4594428149219677e-13,-4.190199444503685e-14,2.312127204175598e-13,9.484852672392229e-14,-4.763326570599496e-14,-6.918618382572683e-14,5.961432652443952e-14,-1.3475962205065502e-14,7.667589055126216e-14,-5.0435940381865675e-14,8.738709671726056e-14,3.762119054830714e-14,2.095171351820534e-14,-4.561895135698557e-13,-2.0892171227908454e-14,4.941354267675068e-15,-7.920942525728152e-13,-5.579681136248771e-15,1.627895694918408e-14,-5.001626731651237e-13,-2.2539842666566947e-15,7.031999195359645e-14,-4.761519628601396e-13,-1.0273641908726145e-14,4.7948927626770874e-15,-7.87060733752773e-13,-7.238880325270474e-14,2.1939218093743173e-14,-4.511554654981526e-13,-3.626469484205641e-14,1.0159255167347225e-13,-4.966524459462689e-13,-3.707724938684556e-14,1.4590852982350082e-14,-7.825031465684949e-13,-3.283222805213939e-14,-6.28222747285642e-15,-4.741303749033137e-13,-1.708197180959043e-13,1.2974921969904804e-13,-4.285222568941903e-14,5.978254757712384e-14,5.446992865177885e-15,-4.566982651929199e-13,-5.083835284010333e-14,5.917967584393551e-14,-7.597546836777064e-13,-1.570911104327673e-14,-3.2203747110092486e-14,-4.267289300090401e-13
1.3268573144263002e-23,-2.4752814549064626e-23,-2.1826790729083928e-24,1.2765193385285848e-23,4.4771768668300405e-24,-3.0534501501687735e-24,-3.7289217569412075e-24,3.296926487930841e-24,-2.3984038014873082e-24,4.314855411701341e-24,-2.7809182007266054e-24,5.5814774122946324e-24,1.834346426928918e-24,1.590851589713141e-24,-1.4222675681433762e-23,-1.1776148175450797e-24,3.0712951091807824e-25,-2.331795048009191e-23,-5.62855030765951e-25,1.0535024643894583e-24,-1.3099209824002525e-23,-1.6396735247972452e-25,4.105895946550451e-24,-1.4817382992753222e-23,-5.495973618584691e-25,2.3224065138301204e-25,-2.204964833520145e-23,-3.0611206950096323e-24,6.232359004638617e-25,-1.2993301532039957e-23,-1.992534984772625e-24,7.151723940999565e-24,-1.5104355614391405e-23,-1.8282607580417324e-24,4.543920571240713e-25,-2.2010537621545133e-23,-1.1045962107044437e-24,-8.703010688168725e-25,-1.4224338729923458e-23,-9.483412158125953e-24,7.203297964175863e-24,-2.3790304927071377e-24,3.802797523722282e-24,3.517568195709331e-24,-1.1598621111574075e-23,-2.366532695471629e-24,2.5908733433322797e-24,-2.1581604728947844e-23,-5.367097837591118e-25,-2.0162941695285928e-24,-1.4635877733191347e-23
