42.086325951838674,-65.19959180452696,-34.929308823308325;30.022924331128678,-4.1669674712851785,-15.309286303084463;-7.169404228884592,7.311524880832184,-37.625461022235086;6.324748207432363,-5.8049357662696295,-40.83217604414683;4.706315860030624,2.055292692900704,-43.173128601525534;-2.8507972285331107,0.6746062933163636,-107.92004305775481;-0.7236718650805024,2.1157470142485346,-73.5574162617903;-0.4049753115129081,7.641683015366195,-61.70447518382576;-1.4030109787839509,0.6506699870219974,-105.58153499572836;-10.209206637184666,3.736967690709655,-69.94516558351233;-4.863680500054474,14.908208502846175,-72.77705059259787;-5.105268670608833,1.7695555640628813,-96.63455583951817;-4.747299696026533,-0.13088470165367005,-74.88051581495266;-23.309600830078125,17.705230712890625,-5.847499847412109;8.006103567883752,1.3246117358780514,-70.2302822832837;-7.00989683342677,7.523036902492499,-91.31557868194422;-2.323005794986237,-4.053916166076421,-66.65693528229082;
42.095369909185266,-65.20839681871006,-34.964298173433505;29.926364346823636,-4.766980771231492,-15.609047322272046;-7.108268695470619,7.263006275816001,-38.758186733826605;6.281577945662268,-5.766917435821367,-41.5130424325506;4.71779299147476,2.373366797164629,-42.927040833369276;-2.8507950124487493,0.6746072187106795,-107.92005203788133;-0.7236534745841606,2.115746319016116,-73.55809081307365;-0.3936256332128175,7.890533010701496,-61.743456264784086;-1.4031451598845242,0.6500796077047118,-105.2860709649156;-10.201943574708343,3.71705573141351,-69.72687393233534;-4.828353897245403,15.40700624052954,-73.32291235324469;-5.107105538139116,1.7519766906105447,-95.84150605989817;-4.746550071305999,-0.13340203686566499,-74.84625072357504;-23.309600830078125,17.705230712890625,-5.847499847412109;7.971823904218801,1.4177659636441857,-72.44578904521583;-7.010492702184612,7.481287818597257,-90.39172018439795;-2.315388629468182,-4.071364377096223,-66.241865920422;
41.74902999513181,-64.89346894811895,-33.650577190844025;29.905798357205143,-4.892340776274504,-15.671563494001363;-7.2583025476840835,7.378126575081662,-36.01256598927928;6.386663781356558,-5.857728607266036,-39.868872456848386;4.746216094831786,3.1549851335560954,-42.35266347120654;-2.850792145951458,0.674610982424085,-107.91840307521764;-0.7236449547634377,2.115756666237834,-73.5579417434814;-0.3780943580298221,8.201598933890882,-62.258765147644255;-1.4033373806542973,0.6494077287202947,-104.95070889097096;-10.19391644181537,3.695412873709372,-69.48923592776967;-4.804599462903128,15.71093088887671,-74.36307155746408;-5.1080188928572525,1.7420674158046245,-95.39436943728616;-4.744560571078891,-0.14053409972699915,-74.74872435135956;-23.309600830078125,17.705230712890625,-5.847499847412109;7.984652226438648,2.0283180656446866,-71.91885169394891;-7.0105566369107475,7.468453670127645,-90.1075882277147;-2.3183511207769554,-4.064486588748834,-66.40550499520026;
38.229610471764055,-62.50554542441424,-21.63300446764771;30.104686595910593,-3.6430325558731393,-15.04675125716265;-7.862395213983804,7.741550092558846,-25.751434273434572;6.699766013383497,-6.099491619984432,-35.18271395120877;4.768372889283036,4.5013467916632965,-40.347597520722736;-2.849747022231654,0.6780622821302423,-106.13341304231196;-0.7268171516912966,2.1262634406907814,-73.03929549120886;-0.35938418443197256,8.614738217999308,-62.23099789676415;-1.4044902306780571,0.6446313831496818,-102.58792192765951;-10.163379173949988,3.6146316102291154,-68.60072310477098;-4.814624888519116,15.644455545186828,-72.56460238734188;-5.109848122864132,1.719954232036525,-94.39957259134351;-4.727160403374069,-0.2025687459058354,-73.90190456538966;-23.309600830078125,17.705230712890625,-5.847499847412109;8.060516699483522,2.9665607413475774,-67.73610440290892;-7.010527516948151,7.467617958056386,-90.08886450677106;-2.32534543025931,-4.048378931996489,-66.78839600976534;
33.79634063943128,-61.010360074548466,-8.60079100973001;30.203674578815612,-2.9910250901974766,-14.719316706697237;-8.514322652415675,7.991226114501308,-15.568541906791479;7.190164387929841,-6.405602558847019,-28.32635540613014;4.5561122289258,5.280323712412881,-30.744097278200474;-2.84573577984316,0.6994594558577029,-95.34173483610176;-0.7390232504697041,2.1639156639566126,-71.16788836537705;-0.3717371624304843,8.640444405027857,-57.63544365788718;-1.4070246119227778,0.6272265003419804,-94.13075841155128;-10.09828475200046,3.4532958659480366,-66.810539183477;-4.903676252474781,15.125655643422029,-59.31372605966918;-5.113405802959953,1.6447449401595937,-91.02737217109735;-4.701498665649984,-0.2884590416162536,-72.72415153598374;-23.309600830078125,17.705230712890625,-5.847499847412109;8.514837016673551,4.792982745397721,-49.47808982394584;-7.008545659897946,7.362817151949462,-87.76844567353439;-2.3274783560150762,-4.0433870744620855,-66.90779577133017;
34.971023602252124,-61.266387511282964,-11.893878705473375;30.22691301211942,-2.8338973412623316,-14.640216756520786;-8.251257128129872,7.906960526794909,-19.595194448031677;7.136520247116311,-6.376118394684589,-29.05222916728274;4.303439145715033,4.943283841275179,-22.516759046406065;-2.845654303338494,0.7207941890753282,-84.76802671359987;-0.7663585266305618,2.236279844169215,-67.50850797651954;-0.48609495359028115,6.9362771121251505,-47.03827537287923;-1.4044198767010037,0.592559268912296,-77.36771744182207;-9.842274479340555,2.9281146317956273,-60.793433701566464;-5.0738526142483105,12.969349850078997,-53.7014940107307;-5.096668546681836,1.4161700666348045,-80.75002602341038;-4.545319394590688,-0.7098723589736138,-66.81576301764804;-23.309600830078125,17.705230712890625,-5.847499847412109;8.504321416125439,4.220027209136444,-49.871406808669505;-6.986983704099201,7.116700990069209,-82.2977412185165;-2.292239861753247,-4.122181857617768,-65.01959192870505;
34.75706184722151,-61.21819261105122,-11.292995625307187;30.50418128283339,-0.8466940134333223,-13.635526005876775;-8.194623145816616,7.885712207291164,-20.4764942318412;7.1136099417317284,-6.363052980216136,-29.36470245447842;4.2049413605481005,4.318031345564119,-20.30048425371924;-2.8489864015204858,0.7396167001519993,-75.29744614019343;-0.8241183027683071,2.356311628480341,-61.20501937701982;-0.6298512208510857,4.634714617832957,-37.34768067218544;-1.3964976573177754,0.5688302471922374,-65.33289482926966;-9.258759004797653,2.0678489029006313,-50.06634844674535;-5.2641679727712605,10.52842434136045,-46.93331130600876;-5.031855029804894,1.1702848233853298,-69.34337434529166;-4.132498089711046,-1.4629604520062305,-55.51167396714318;-23.309600830078125,17.705230712890625,-5.847499847412109;8.621197832998302,3.3561205978499986,-46.28711105288847;-6.869168219425558,6.621127377464153,-70.99790742840962;-2.141269600227076,-4.399726944072808,-58.104515551185635;
29.73994605555381,-60.77452025669829,2.2613690207924844;30.463270461444743,-1.1512609946741446,-13.789929417321158;-8.809564464856582,8.060559050641883,-11.141985736509536;7.451075795554579,-6.536320289729455,-24.862874385056692;3.9382474123277627,3.5409044769974822,-12.896984841550413;-2.8611252033493266,0.7681912162544101,-59.86081728087706;-0.9317515162173461,2.5180463859405564,-52.005206229517654;-0.5979152070308712,6.36998603507757,-27.691590402026463;-1.3705800997991295,0.5353428663691553,-44.74980550857765;-8.251590695392379,1.1494517060259701,-35.949562365513636;-5.2468009136968705,13.169831844085373,-27.06077339929201;-4.693413736613409,0.7008804733911898,-42.987074029860025;-3.375910879227713,-2.286734855650599,-40.756484829614124;-23.309600830078125,17.705230712890625,-5.847499847412109;9.54393963752483,8.087174331827107,-21.868983839135467;-6.27713237470905,5.67569198417007,-45.996603185858945;-1.6694416211858498,-4.956914980743548,-42.0689532691948;
26.255636628512868,-61.21502949305786,11.319978355745109;29.786752325258526,-5.604725903726099,-16.026136482243285;-8.994646602488192,8.094288861149177,-8.394124160549126;8.603872461486354,-6.905783203942221,-10.429800416366156;3.265503534080206,1.5431782308172188,5.194115890346806;-2.920176632764578,0.8185311169829571,-20.60512292216712;-1.3357229083714839,2.8516163811743125,-27.017290453944707;-0.7140376143828248,6.3701765766875,-5.499343635485122;-1.302809473788454,0.5001912591024767,-7.054679772909047;-6.3108077742474045,0.22010618311803198,-13.588120397137907;-5.377100974684559,14.647397881323835,-0.20220578680101653;-4.036671248358142,0.35719661220054955,-8.931586196420817;-2.0476332915505697,-3.0883703798640143,-20.250971484565227;-23.309600830078125,17.705230712890625,-5.847499847412109;10.81312479972725,14.199184572037453,8.919421685371248;-5.090750601203141,4.960047179210303,-14.753865648688347;-0.9676293613911321,-5.416070361059374,-23.634782585006725;
28.746124190043417,-60.81713602501319,4.865089718088917;30.58328807561222,-0.21291753061482233,-13.312780498704356;-9.072174117856324,8.105129247995038,-7.250605084891319;9.679294285476784,-6.982624316809909,2.4616731656918667;3.3626307798997983,3.247040439056791,5.082551044039704;-2.9333679279320095,0.8227316171395221,-13.716779838732318;-1.466234449306151,2.9095080479706286,-20.258434611637078;-0.7004866137745616,6.689087792839841,-5.355584186080879;-1.2968358735035592,0.49959307633359235,-4.173784213235706;-6.063592762384636,0.16554233216236458,-10.984676282005559;-5.402827389660773,13.682952436641088,-4.480574733038793;-3.987700139760519,0.3503405624096605,-6.713623220693663;-1.8288604206621542,-3.1629627392490733,-17.220447972122102;-23.309600830078125,17.705230712890625,-5.847499847412109;10.750951522129375,12.825388014987926,6.594999828017819;-4.8004578222974175,4.899898947522409,-8.17071460794864;-0.7166167451481773,-5.511481502567773,-17.764061032351126;
30.54659219096543,-60.7253048990786,0.15566234433204507;31.22962924660828,6.122088097302652,-10.05700791170736;-9.21328045005482,8.12071901855977,-5.175642087773436;10.209857577313677,-6.929645182661778,8.840705304075453;3.4593421329879055,3.7297753383917582,2.805325809551835;-2.9382323317593193,0.8238040785962939,-11.264067868316388;-1.5177599880957127,2.927236035677116,-17.68188645707391;-0.6984484748933903,6.682641796124106,-5.782373688464439;-1.2931549671610558,0.49939060505899713,-2.3874851698647603;-5.960441575711683,0.14658395950203684,-9.907211965725793;-5.430417455730178,13.0343140812889,-6.073423065005386;-3.939541788308285,0.34567909023013044,-4.545466734869187;-1.6579288110710801,-3.212113012413688,-14.889493125024526;-23.309600830078125,17.705230712890625,-5.847499847412109;10.782778894285865,12.95620715422953,7.352899643585872;-4.636023118806525,4.881627110519538,-4.500027623225009;-0.5847823441494098,-5.549940536732135,-14.762570239102665;
30.392227373418844,-60.72590643316801,0.5624914019172884;31.150596803658573,5.13915640471541,-10.56601177617532;-9.122870583219516,8.11139192489897,-6.503715023547315;10.349505720432255,-6.905571012059703,10.536889555188225;3.435328733912761,3.881880277799964,3.838364450448587;-2.942450043813323,0.8245685218855501,-9.129682484273253;-1.5643737890733076,2.9410865184822597,-15.38309113292381;-0.687421757251014,7.140601495378119,-4.014494450465538;-1.2894349148686812,0.4993067369836062,-0.6255284112528585;-5.855684686107146,0.12940377025283634,-8.817082948260452;-5.409928009580438,13.524121925095631,-4.837898592660721;-3.898314128927938,0.3431856751190552,-2.694203373543587;-1.515765364282306,-3.24727614454766,-12.970053008052783;-23.309600830078125,17.705230712890625,-5.847499847412109;10.744421663255817,13.96068716600171,7.2859863663448365;-4.505308006794817,4.874730591562808,-1.5980737550184685;-0.4660831848057535,-5.578213646643163,-12.096003375661503;
31.160959048866992,-60.73308431416709,-1.4686884866711285;31.08184970886777,4.352693128799474,-10.972455123087823;-9.17432390321235,8.117018690505393,-5.747170036666127;10.54554563309303,-6.864245178916743,12.9358163527171;3.4641057528172707,3.681919040331877,2.5685619185473847;-2.94503134279367,0.8249488489352688,-7.847058104189109;-1.6044097616454378,2.9513750039631432,-13.428521560789367;-0.6730037754233089,7.515033704835071,-3.5559744963676962;-1.2877879227802504,0.4993152807469947,0.1790191240043626;-5.753222970571595,0.11458662154603849,-7.753585605743872;-5.397734542851759,13.777073593437523,-4.367186809939383;-3.8791537055684877,0.3425754837718593,-1.8386817380342109;-1.405172855500179,-3.2711404765005607,-11.48796928770528;-23.309600830078125,17.705230712890625,-5.847499847412109;10.79075063332395,14.003013595061816,8.289646890409387;-4.400668103052511,4.874012037852726,0.7217838834532344;-0.37139128366551744,-5.596707337376106,-9.988757308661576;
31.716623284960363,-60.75769322372628,-2.94797206178146;31.02035130959551,3.6916893861985596,-11.31338986190574;-9.119078655333805,8.110993337155806,-6.559946166260595;10.708873190332566,-6.823217537793596,14.95310625836398;3.50846902005401,3.6392227775190085,1.071240211051073;-2.948074376904914,0.8253263281730052,-6.326614807964681;-1.6471360065069962,2.96077776827181,-11.35916735923917;-0.6565005254316247,7.922216458809176,-3.2108679377882368;-1.2877219995487217,0.4993308394336792,0.19459615915032202;-5.663777283228579,0.10325944506864149,-6.828027477183625;-5.3490892845349896,14.484404273427563,-4.672750827907244;-3.856058637324974,0.3421915673426805,-0.8082460400509461;-1.3126216303419187,-3.288785047410636,-10.254264105968101;-23.309600830078125,17.705230712890625,-5.847499847412109;10.703519938216118,13.959395649560875,6.426005798225489;-4.373927137523406,4.8745908086634415,1.3130796169104002;-0.31713949820428966,-5.605647180088056,-8.7869202667435;
31.60091818299985,-60.75093144375923,-2.6388781406451276;31.078113200292126,4.311889529893128,-10.993499824149897;-9.086017585895956,8.10706245538815,-7.046311886762801;10.851322352160174,-6.7820870482917694,16.729511951134484;3.5488978759603786,3.489324060657986,-0.4818856922002084;-2.948525178505108,0.8253733487085169,-6.097794373449368;-1.6735796051845369,2.965787026449199,-10.085676217480582;-0.6604485841841173,7.713430651393752,-4.218321397066454;-1.2888159659490253,0.4993453606179918,-0.3469596274707314;-5.616526686233884,0.09792698129519017,-6.340244728030939;-5.358815926205149,14.159630580239666,-5.9994569139174345;-3.853102966856323,0.3422821909593228,-0.6777036200057225;-1.265877432817887,-3.296945170752246,-9.632705915718041;-23.309600830078125,17.705230712890625,-5.847499847412109;10.67056398258536,12.807035494504476,4.896434120780299;-4.372906005745646,4.874710921922671,1.3341885515686585;-0.29034728163730994,-5.609628794979298,-8.195596616362579;
31.221228892576548,-60.73431737075417,-1.6281488558775283;31.12521866069059,4.842756326382533,-10.71926405338857;-9.099232480001206,8.108721905054624,-6.851347488337737;11.030612838934971,-6.723455072385417,18.98985247007931;3.579521385065981,3.327620960270922,-1.7408200070778026;-2.9500700889513736,0.8255207417092624,-5.3561042859664525;-1.7070552126086664,2.971267543153674,-8.48197483374653;-0.655484924783139,7.6432250548662495,-5.710372138404139;-1.290385039505283,0.49937325590138,-1.0836793813979;-5.543993559830744,0.09040889101986416,-5.591255908160949;-5.3575044774304645,14.091291432530165,-6.664975186924835;-3.8621327642517107,0.3425132585128319,-1.086265970961911;-1.2342691872403229,-3.302114771639621,-9.212916714826449;-23.309600830078125,17.705230712890625,-5.847499847412109;10.730873155191443,12.014541524382224,5.627382881746797;-4.3729768180185005,4.874780060881844,1.3326807360914614;-0.27947976716401357,-5.61118006264958,-7.956485358396385;
30.999597149074454,-60.728172927444334,-1.0402899833943646;31.032981821725407,3.8246356481079475,-11.244834443202086;-9.073330930850197,8.105482085339581,-7.232812616942258;10.974887797429624,-6.742669126791877,18.283980178743622;3.587411985559468,3.348691948079998,-1.9570621056606932;-2.950529776291184,0.8255653551378495,-5.104878473456864;-1.7340618852291567,2.974991848511044,-7.191637929634375;-0.6370053237190224,8.060073623721111,-5.6414189203010565;-1.2903511630919398,0.49937718881400384,-1.0714198052538038;-5.4485244150441225,0.08189912369982633,-4.60688848264504;-5.34828861831261,14.335320586640737,-5.896888176673919;-3.864254437476513,0.34260048612703276,-1.1841526191435179;-1.1827176352906954,-3.3101861839543893,-8.529074920946265;-23.309600830078125,17.705230712890625,-5.847499847412109;10.729007762773673,11.883411392705623,5.504360083653388;-4.372938438747048,4.874815892294483,1.3312848888422621;-0.25660097701255735,-5.614263581710086,-7.451141440879791;
30.751748723075373,-60.72465583180736,-0.38479501768494195;31.015435935772846,3.6405657275117562,-11.339746289109927;-8.985218985330075,8.093127264157303,-8.532737501740549;10.87606519942998,-6.774736721503857,17.039477059759697;3.5882934520841303,3.190602488810181,-2.2585876491698826;-2.9502100756117637,0.825535650423052,-5.265603558055574;-1.7530272103410187,2.977228888932239,-6.2898711235185765;-0.6407228798093796,8.011687985171054,-5.364665724083174;-1.2907550316041838,0.4993848847799932,-1.2646964694005902;-5.380475878839389,0.07680358066844528,-3.906183701527116;-5.352334925815207,14.328643609982313,-5.47586737761204;-3.8717136110226287,0.3427711153784375,-1.51840355206172;-1.1481879022066512,-3.315203272557096,-8.07227087862875;-23.309600830078125,17.705230712890625,-5.847499847412109;10.724640055163874,11.501628868595622,5.176592115810031;-4.373461309561648,4.874803059751398,1.320252272349201;-0.22013759804692756,-5.618793676444367,-6.649139928075233;
30.70498265158344,-60.72435013650802,-0.26136955883478485;30.972436380729782,3.2011292231803505,-11.566023976954458;-8.972727638037895,8.091194078434286,-8.71746332210411;10.933129821027888,-6.756434572297838,17.756964312268746;3.594442589657021,3.190658548600454,-2.454551508137646;-2.9493777934046728,0.825454359019189,-5.693385229065335;-1.7662706801838006,2.9786171875903773,-5.659013717689877;-0.6366170152968682,8.026555828569197,-5.998833783065457;-1.2921219210403705,0.4994179587262714,-1.924107771107444;-5.325912111855306,0.0732767604897897,-3.344698376169152;-5.347000696754454,14.324189950899632,-6.127873467403894;-3.892411707810556,0.343435227173591,-2.447021093152088;-1.1336453214494089,-3.317269675030323,-7.879605108501721;-23.309600830078125,17.705230712890625,-5.847499847412109;10.652575509253788,11.221634991047194,3.503632689877179;-4.384409267933274,4.874536467402169,1.0777446948617495;-0.2026694004019549,-5.620718372793475,-6.264951906140123;
30.624969541577066,-60.724217074180515,-0.050305925180527566;30.942757345197194,2.9060241345939195,-11.71784687288865;-8.973545248036984,8.091303728900455,-8.705147625354588;11.009832567768196,-6.730607599979739,18.72608238750648;3.6087679047711823,3.3245299512244664,-2.6801634459719548;-2.94807025274445,0.8253177581771448,-6.3473627654555145;-1.7793347016160066,2.979839818917145,-5.038206967045486;-0.6331549358397581,8.084341840197764,-6.148413684293214;-1.293303618934718,0.4994552981430835,-2.494811903157796;-5.272673194790222,0.07031382139119291,-2.7964554984462175;-5.338450740495016,14.506761668194862,-5.72965799205803;-3.9062084429004917,0.3440129328776378,-3.0638252708019778;-1.1219109550695268,-3.3189368636992853,-7.724436644116508;-23.309600830078125,17.705230712890625,-5.847499847412109;10.586988624170857,11.212273067093093,2.1297884816726267;-4.403152575282851,4.874182752703,0.6639237168982888;-0.1956573284255545,-5.621532507581451,-6.110890596894041;
30.77238601577127,-60.725044521896876,-0.4395600632818404;30.946712589634764,2.9450886990620253,-11.697747368802803;-8.964361282250556,8.089841804719276,-8.84109925018243;11.00832952183962,-6.730997494225662,18.706906377396972;3.61988138702905,3.675172047270033,-2.431144585287754;-2.9468224016916222,0.8251785076871003,-6.95782348363025;-1.7940663221887916,2.981048124548603,-4.339349208159771;-0.6131730501949761,8.514913550237196,-6.229899938748218;-1.2939259980009263,0.49947318063678603,-2.7895544171423765;-5.224106461326827,0.0680425081032694,-2.297067404107274;-5.292647884919493,15.158940023205163,-6.0206515210009215;-3.912423610864209,0.34425218885772946,-3.3380397983487313;-1.0987477082446302,-3.3220556539418866,-7.417497585545608;-23.309600830078125,17.705230712890625,-5.847499847412109;10.65476039940457,11.561311794869251,3.7552676948003025;-4.382447515217786,4.874424268227287,1.1234016358804482;-0.176424033357783,-5.623553690660297,-5.687640894740117;
31.009889216766208,-60.7287422043601,-1.0679069990515035;30.925125172845185,2.7342988094939624,-11.806098899266058;-8.963478004459938,8.089666347199353,-8.854611362327123;11.046552108593243,-6.717511647370751,19.1919162778704;3.6170098198085165,3.716652600542233,-2.267126718923741;-2.9462949413331905,0.8251155740964582,-7.225093518065471;-1.8071792470726025,2.981975357161504,-3.717597051333236;-0.6008373069468476,8.80686185350928,-6.0549402319969445;-1.2941788222978396,0.49947645193212403,-2.9209884451481045;-5.189899984368982,0.06665791154822753,-1.9452870016954265;-5.27035719229655,15.519503713382939,-5.8051373467325185;-3.907172007397641,0.34384777383659504,-3.098395189781705;-1.0604597671110634,-3.326933461365107,-6.9114441521663785;-23.309600830078125,17.705230712890625,-5.847499847412109;10.691829695183097,11.707010553983624,4.620679466348513;-4.374266781351981,4.874503612058984,1.3063277678611662;-0.14943379510023502,-5.626099757045179,-5.095420539117484;
31.317072636838837,-60.73805712302433,-1.8831598850506417;30.847459318594805,2.002465102955459,-12.181827841089756;-9.01209831876006,8.097015180422321,-8.136005445818544;11.086870539998374,-6.702925853640986,19.705215532060123;3.6476547247134623,3.5737544125727396,-3.490634216624567;-2.9452572733234192,0.8249846897462293,-7.736060074225172;-1.8161523607707741,2.982527262810624,-3.292288580679905;-0.6019333254098959,8.752195939974143,-6.316087530053926;-1.2952505771741885,0.49952531936610717,-3.4210056011656675;-5.1871461620092845,0.06647977949833472,-1.9160691148308437;-5.233606450070231,16.034185304447334,-6.012200624812216;-3.9156357574253025,0.34424423160956663,-3.47545154114281;-1.0487598622957326,-3.3283556566151296,-6.756678606598879;-23.309600830078125,17.705230712890625,-5.847499847412109;10.70122336351305,11.873868065940826,4.922793403259632;-4.382117327488085,4.874256089788938,1.13368275689135;-0.14181477075401572,-5.626739607209822,-4.928090484201061;
31.4380488800622,-60.7431671861789,-2.205084869447834;30.842797927101188,1.9600515508765985,-12.203535969758937;-9.097482640063658,8.10839266326776,-6.87802782797568;11.147445593121708,-6.6803011551006914,20.47973446536816;3.659796945179552,3.3026921568189738,-4.344885120348428;-2.943989299178,0.8248111663275888,-8.358103965174081;-1.8261468418880742,2.983061842969771,-2.8194252096658907;-0.5998567286715071,8.681100568183382,-7.293213165285453;-1.2966595834906673,0.49961192017856804,-4.094450781017656;-5.183071580935435,0.06629792391339984,-1.8743757798288812;-5.222178934911358,16.081090686625167,-6.959209695538007;-3.9263836712014686,0.34488376878779636,-3.9552778993327564;-1.0314226649375684,-3.3304319722969193,-6.528392394159383;-23.309600830078125,17.705230712890625,-5.847499847412109;10.72905845863218,11.784346644299305,5.449643035318573;-4.39691101180556,4.873951541242857,0.8056305084954225;-0.1414802297405935,-5.626853500318685,-4.921065542398267;
31.46450782437515,-60.744353977210125,-2.275533547088779;30.890954570379893,2.40725676972294,-11.97411956142014;-9.10520907897587,8.109332939030065,-6.76359795047205;11.162966003798823,-6.674380275148791,20.678812889745494;3.6485054833481967,3.2724140525526506,-4.036061872627476;-2.943947037031119,0.8248046230727777,-8.384123763271027;-1.8426889302946206,2.9837652519858833,-2.0366524184900605;-0.6063533297540011,8.529575760652335,-7.356775060617604;-1.296606980809175,0.4996058952372962,-4.064194936965613;-5.160947424065068,0.06560938616948175,-1.647175724538279;-5.218829168402273,16.073329925021863,-7.410490304368409;-3.9266277112871655,0.34488480620813033,-3.965449944277232;-1.0067423803821482,-3.3332184396163766,-6.2020755643614685;-23.309600830078125,17.705230712890625,-5.847499847412109;10.69348716839547,11.640550552320722,4.617052739637241;-4.419737740860478,4.8737143935237315,0.2995470162908802;-0.14152070755126211,-5.626803892824765,-4.922664183827738;
31.492641162035394,-60.74569428431064,-2.350423644333686;30.857187219174328,2.0920824619693743,-12.135850007987944;-9.04482965672867,8.101596657262004,-7.653440675775094;11.158130796619252,-6.676241360820654,20.61679269217376;3.6297779072727803,3.5456860745057135,-2.967015666880455;-2.9444471560542866,0.8248750048341744,-8.138449317171258;-1.855933801717903,2.9841649925766807,-1.4092259892336578;-0.5986258918016616,8.78129557200155,-6.678840898399196;-1.2956693027682094,0.4995470914997602,-3.621475974186893;-5.122463745576877,0.06466613821302647,-1.2523479389727115;-5.226062778459626,16.00547272476499,-7.109474495127099;-3.9165760719670084,0.34425773355350353,-3.5149447578101345;-0.9781418114108138,-3.3362099444187656,-5.826099120166347;-23.309600830078125,17.705230712890625,-5.847499847412109;10.594780932923197,11.408725002406934,2.4138790049505765;-4.440237002554587,4.873717342966831,-0.1559946056661623;-0.1404349175954428,-5.626892871237242,-4.897620697059008;
31.76667398835507,-60.760867731248325,-3.0819175480806607;30.806258555625266,1.6297963085226677,-12.372786002092791;-9.040763755130204,8.101068461697185,-7.71325213685801;11.170862632924242,-6.671456283728919,20.78033693456178;3.6463830060368005,3.96755008429339,-2.7767176313720707;-2.94410490383288,0.8248209426548876,-8.31333056315134;-1.8622607182784037,2.984302305293575,-1.1098783946493214;-0.5747530020728572,9.305582937846808,-6.683557191537471;-1.2955444282703972,0.4995486802025045,-3.5732209613214394;-5.100278667806983,0.06429393132871364,-1.0243819578549989;-5.211366616674356,16.172692928813227,-7.4882220705557145;-3.9140142835167193,0.3441871095762872,-3.403991268312339;-0.9632888351181814,-3.3376365201862543,-5.630445668903679;-23.309600830078125,17.705230712890625,-5.847499847412109;10.571555278892498,11.60284526176757,2.0455706480557865;-4.430796538525083,4.873783035632017,0.05271917703747775;-0.13105034486561595,-5.627694752575525,-4.692483783641688;
31.817022153802064,-60.764079724379094,-3.21651198173082;30.795197666795897,1.531649531043474,-12.4229825365973;-9.031467104215865,8.09980803458917,-7.849479664058496;11.099999736433249,-6.698251737198614,19.873050902439555;3.672766730213492,3.9662624196997744,-3.623511816054462;-2.9428250560741667,0.8246204138460073,-8.956818796333557;-1.8646872429010735,2.984341643601605,-0.9945981859603563;-0.5677021062699702,9.409939691977158,-7.111048935005783;-1.2974038033651802,0.4996929717113374,-4.47926886604818;-5.130063550698221,0.06500946857371548,-1.3307505102273893;-5.207324395669391,16.18522692828596,-7.860168125271777;-3.921097480881474,0.3447529643482632,-3.7258765905951066;-0.9712596636502433,-3.336783029953366,-5.735613122230621;-23.309600830078125,17.705230712890625,-5.847499847412109;10.557179658145033,11.857352416321321,1.9017062512798333;-4.442902945191616,4.873917955408794,-0.21614361781595193;-0.13796235686760427,-5.627097299134431,-4.84454829488762;
31.846698430161346,-60.76599541203902,-3.295861254174726;30.75813783120502,1.2061504803698355,-12.589545889806807;-8.988430317799853,8.09356910797022,-8.485524379432052;11.038972980881843,-6.720351332355135,19.095734059303485;3.7181042894261545,4.443504622237944,-4.265136917128986;-2.9422829361746605,0.8245230912461394,-9.239577116666908;-1.867984760297007,2.9843880309337645,-0.838035100027053;-0.5565072898531045,9.655544351975252,-7.1038893155049365;-1.2985838681509327,0.4997994677702377,-5.018723241395875;-5.148589631837106,0.06558054016928483,-1.521578379525625;-5.190697282113797,16.480867396504955,-7.4353327579543915;-3.929247359025105,0.3454611340592678,-4.098210894957113;-0.9891968864893199,-3.334875409590191,-5.972724430247219;-23.309600830078125,17.705230712890625,-5.847499847412109;10.501811076777733,12.056568219349801,0.8706100739730864;-4.48742050791676,4.874611349670538,-1.20588924484084;-0.1590713073000838,-5.625196857026622,-5.307622498204434;
32.06966984058059,-60.78241686565813,-3.893713584167335;30.698541588515408,0.6987986057240283,-12.848769380015359;-8.964388065448995,8.089878087849511,-8.840523332207898;10.984898630955113,-6.739135765270619,18.410410223813823;3.735991625935623,4.90862817370336,-4.057574648449982;-2.9426703318265233,0.8245764508550749,-9.048950708685751;-1.8704043914104045,2.9844124544989032,-0.7240481084470574;-0.5572151097912768,9.640283710237279,-7.109590280078175;-1.2993301429273894,0.49988774143072423,-5.413787738613003;-5.171049219218215,0.06632258322552298,-1.7521656310147513;-5.196299157214238,16.428876270427374,-7.208154835054771;-3.940524800428068,0.3464758924970175,-4.612752166149654;-1.0149884543709329,-3.3320656375235207,-6.312824681726749;-23.309600830078125,17.705230712890625,-5.847499847412109;10.510565992783588,12.020826200907495,1.0279244183739955;-4.510970864444145,4.875365015769567,-1.7304461891325396;-0.17161500426978915,-5.623970602833313,-5.582843284944566;
31.880197324693267,-60.76833711070325,-3.3855311218190174;30.70549501162688,0.7572740459078853,-12.818962414339133;-8.929560691998187,8.084246798440923,-9.355448693506494;10.927284370305232,-6.758283038054872,17.683197268700773;3.7635503265651655,5.1600402488234725,-4.521167127843464;-2.942723083586778,0.8245788285652462,-9.018215390492188;-1.8711675481586094,2.9844131637374427,-0.6876555016575665;-0.5557229489206446,9.56195060069919,-8.048882330746784;-1.3004256733308317,0.5000075548055246,-5.939978082922153;-5.1864983619673986,0.06689723237006673,-1.911636104105753;-5.182938990449891,16.56235227266889,-7.68911380123015;-3.957362889318606,0.3480747661431256,-5.3751227668171495;-1.0491082367499946,-3.3280997582380634,-6.762430567596109;-23.309600830078125,17.705230712890625,-5.847499847412109;10.517969267282684,12.157696639172485,1.268266166227793;-4.538463042702896,4.876476062520941,-2.342052206411438;-0.1914444123021588,-5.6219224677903945,-6.0183474440932585;
31.43519332577774,-60.74280361344741,-2.1971548162323877;30.774825564278085,1.3515136008517086,-12.515223493782653;-8.915207780076493,8.08181924606326,-9.568137364669703;10.952771555837689,-6.7499532891353065,18.004520339300164;3.781975450182544,5.155824443990543,-5.118501104756737;-2.941943168344456,0.824445502287961,-9.413879667097497;-1.864714045928513,2.984312343393392,-0.9937553137623638;-0.5612917097651284,9.411831957968964,-8.287615394544133;-1.301616197516395,0.5001463143329935,-6.523710012882361;-5.222871812166246,0.06827199064449396,-2.2851966501674;-5.175521084794772,16.640810850754185,-7.921107928497374;-3.966299547887603,0.34903248930888175,-5.781681421223986;-1.0807750646556467,-3.3242311493530314,-7.180645318753228;-23.309600830078125,17.705230712890625,-5.847499847412109;10.495469956840735,12.354948804070766,0.926641894435491;-4.571028222272827,4.878106580680991,-3.0661378232962093;-0.2119734339137097,-5.619699964179075,-6.4689700096158305;
31.614719282664563,-60.751751345352396,-2.675726676703942;30.649333776560955,0.292012096087519,-13.056330350743663;-8.859416806702919,8.071849994799923,-10.395570814854937;10.9287508257712,-6.757815369083633,17.701686869838312;3.766036947900204,5.475173285451426,-4.079771505288344;-2.942393518587799,0.8245163156290273,-9.19196572672977;-1.8647322992123005,2.98430952576717,-0.9938755767936414;-0.5498521973207945,9.701237677084794,-7.956623953662625;-1.3015371761457195,0.5001403732664258,-6.495397207403187;-5.233602976469759,0.06870226244813527,-2.3952369044906625;-5.163033271756972,16.831548698228886,-7.830853242651337;-3.962490785892683,0.3486610870450868,-5.6093147120605025;-1.0935574524280167,-3.3225661808484195,-7.349705152396059;-23.309600830078125,17.705230712890625,-5.847499847412109;10.50154682532787,12.669505207630175,1.2645502790231866;-4.592539323718471,4.879364559013788,-3.5443723710398487;-0.23135466863332665,-5.617442155227441,-6.89505163734756;
31.728548094458393,-60.758420508100556,-2.979805307819701;30.630372667338698,0.13790726770791029,-13.134883168161217;-8.841117813967996,8.068423053142617,-10.667703732619003;10.929915402955091,-6.75736866421901,17.716270438821226;3.7730112364682182,5.690070581543425,-3.9471539226622845;-2.9416963152182425,0.824417957196735,-9.510254248462523;-1.85923854219145,2.9842081092767443,-1.2511521380787158;-0.5430468249681102,9.816291729545224,-8.250908421172477;-1.301759467608696,0.500150026036474,-6.580494742228076;-5.236899504039879,0.06876852086791585,-2.429240351724747;-5.1606017122811965,16.846713833803108,-7.987123616855062;-3.9663324324745948,0.3489283678922904,-5.779321158090646;-1.111620742564127,-3.320265829237905,-7.588059666856111;-23.309600830078125,17.705230712890625,-5.847499847412109;10.491286261103095,12.652671810077663,1.0408479456963882;-4.636303397440666,4.882343263659246,-4.515382241342007;-0.26189248201306503,-5.613529670269765,-7.568799293152541;
31.998936630628666,-60.776987982677205,-3.703911397270021;30.7262192471027,0.9326331071420295,-12.729377967810574;-8.86901626824031,8.073613372210383,-10.253147231691036;10.972741638781265,-6.743128893610332,18.25651943481646;3.7861544229928907,5.938319030225693,-3.95565884514739;-2.9415258885632065,0.8244110454079755,-9.600542434238157;-1.8555821374647685,2.9841521323758498,-1.4272595649515942;-0.5335865618529682,10.046227336953567,-8.044125223660869;-1.3021283291568262,0.5001546717114641,-6.738750077142932;-5.244772838034654,0.06889047972557383,-2.5093792651620355;-5.141068894638955,17.091077806486467,-8.266167199197717;-3.9661836664743912,0.3485326241134714,-5.759761360784431;-1.1186735186375465,-3.3194364797929845,-7.681329643382092;-23.309600830078125,17.705230712890625,-5.847499847412109;10.464170664233142,12.71490284969376,0.5232447993522484;-4.672677497304516,4.885076911994806,-5.320929645813877;-0.28839906576061414,-5.609965175555111,-8.15266108526567;
31.93457161951155,-60.771916957712826,-3.531170924612905;30.89099890095588,2.4089421949208933,-11.973208738997549;-9.01374490218168,8.097203117895388,-8.112281609666793;11.067384684272694,-6.710085316883096,19.457042378933153;3.9485757787843205,6.706552841291429,-7.8891359545582755;-2.9366284260455124,0.8236384435784244,-12.027073280337504;-1.83762201284854,2.983812517631526,-2.2736191442733933;-0.5156103401869451,10.261210209581055,-9.512760478118244;-1.3051370444005852,0.5003341921613419,-8.13559447702653;-5.293691483835128,0.06992852476341094,-3.008993866965671;-5.136572854827859,17.058733156805257,-9.023701525257408;-3.974816708828851,0.3474640564421293,-6.097364353881609;-1.1425284864721816,-3.3171117004904183,-7.992752617612961;-23.309600830078125,17.705230712890625,-5.847499847412109;10.455170435902248,13.093690251138032,0.6183750758677711;-4.694636769446068,4.8852489598912845,-5.791327319904603;-0.30275567913736656,-5.60803383883558,-8.468549046618929;
34.25944504027788,-61.10041741816805,-9.888725899473867;30.318916179961658,-2.1806125617646392,-14.310129069331289;-9.306112250298677,8.127872327286688,-3.813941988027752;11.08038271547974,-6.705316482419846,19.6227911103322;5.432141395383713,8.473580255951115,-63.411201887454965;-2.8457859030555683,0.7049553927656059,-92.64298262036712;-1.1632089903482838,2.743015291648111,-36.68040331548636;-0.19004963959759202,11.891504622168052,-70.74330155025292;-1.4061778369068474,0.6319756005923087,-96.48045635309009;-8.511836128251009,1.33452403972086,-39.248753386633524;-4.673736976458455,17.702188256977657,-72.53336901955129;-5.103636347196316,1.628584961364043,-90.3353882478743;-3.525850367207012,-2.1614282434003944,-43.32741052111821;-23.309600830078125,17.705230712890625,-5.847499847412109;8.11292840171858,10.556874099262632,-62.48284424886797;-6.859668804174994,6.649732512239666,-71.54256987007723;-1.392085759168043,-5.175464521394376,-34.327371726619305;
32.81037538082906,-60.859210479797646,-5.8961758524109875;30.233361737671725,-2.777323466446142,-14.611188308767858;-9.65449723921635,8.13594141892217,1.286058901185072;10.739792714054294,-6.814463126906809,15.33722557168789;5.441012283426065,11.097960348637885,-56.64085514450758;-2.850470112588664,0.6753519782158347,-107.54621498009593;-0.9019805149813931,2.4801151347453314,-54.29089965517327;-0.04240119261771297,15.647631553191967,-59.872133901951116;-1.4039724910611744,0.6473103196347858,-103.93335853556513;-9.525777639838836,2.4154533923859094,-54.58917313433366;-4.578537115232977,19.516549009294117,-62.40931688129528;-5.091640545453677,1.8662177315631374,-101.04308216768601;-4.264440450264671,-1.2617073662837686,-58.67791312871687;-23.309600830078125,17.705230712890625,-5.847499847412109;8.212765741199028,7.570485001348092,-59.54789227795398;-7.010799801580811,7.370880956200443,-87.97555533957117;-1.924781613995613,-4.700098430377514,-50.00205889152562;
31.80699403068891,-60.76393104403466,-3.190146773316526;31.040295238010597,3.9152215940269883,-11.197961063222584;-9.661940587634513,8.135792667368815,1.3950328948380992;10.392782027605556,-6.8972160303726335,11.06497137099036;5.34921205633227,8.35522080171751,-58.52808318482312;-2.85093993821065,0.673965442371915,-108.26310523921563;-0.808461689963136,2.3273358423583472,-62.76816856059511;-0.1383237743761433,13.49125379176511,-61.267722380701024;-1.4023710723386011,0.6530601992794822,-106.7912231202331;-9.808425623528873,2.8623876232756515,-60.036941596829664;-4.6653556974122345,18.224058045522458,-64.11848189952374;-5.063708294719649,1.9804501671582784,-106.3000486062992;-4.45848562822787,-0.9055961738415919,-64.00681803715176;-23.309600830078125,17.705230712890625,-5.847499847412109;8.20684354958758,6.842809769384427,-60.10021494640176;-6.994898780655266,7.761455593332953,-96.62583131981931;-2.0862859628306243,-4.486123073949888,-55.866838491170306;
31.603260435154013,-60.751549060462544,-2.6456305677828293;31.335115578952156,7.620198599667802,-9.279046231138283;-9.657561405462937,8.135907786383049,1.3312816357927026;10.305778018539112,-6.913848490157892,10.004973210052455;5.257915979638622,6.119759335175456,-59.537241153330974;-2.8505644010250752,0.675162672928102,-107.63730940616983;-0.7630332292915469,2.2285971164791905,-67.90733400099762;-0.21822573434251627,11.69023135020023,-62.41569921749798;-1.4030538619902124,0.650600012555009,-105.55719144075039;-9.908843774258115,3.047538779380618,-62.20416216222692;-4.814499766093833,16.07938781872833,-64.57108170379821;-5.073956914859511,1.9416905633069312,-104.49410704799705;-4.511836994966305,-0.7911929128030217,-65.66321407494584;-23.309600830078125,17.705230712890625,-5.847499847412109;8.285913680836057,4.26341439458655,-57.55045902327799;-6.989952787850603,7.798560481844548,-97.44584742585457;-2.186934414254686,-4.325177374001562,-60.01905538824744;
32.35305023436189,-60.807933659189814,-4.657000169274541;31.288379523153125,6.92482785754124,-9.64041498359076;-9.704538604369043,8.134518642206968,2.0190348045037485;10.25654096301601,-6.922464726905137,9.407052676509256;5.2017702394246985,5.018063065128142,-59.51138355773499;-2.8508675365039857,0.6743503463324404,-108.05644849435492;-0.7476654200992854,2.1886477429327353,-69.92931139921767;-0.24300286758614417,11.150159122904906,-62.42125339510167;-1.4030126572111377,0.6507117121784969,-105.60875790525353;-9.979192436535987,3.1884885190470946,-63.824645322393906;-4.871795704614942,15.164572372571481,-65.76752261077533;-5.071193536817789,1.951269402711501,-104.93250961650124;-4.538257163072171,-0.7309774363985166,-66.52633639366121;-23.309600830078125,17.705230712890625,-5.847499847412109;8.219618232719409,2.9797682408748414,-60.21821501834569;-6.987983749742494,7.810090357386129,-97.69763777203673;-2.227775748446617,-4.251728533110271,-61.85459806230746;
32.52640494051364,-60.825217628929956,-5.124956762182068;31.264133699340384,6.585804738487841,-9.816426518876781;-9.806542523286407,8.129531957547702,3.5147421906488567;10.2608338325816,-6.921780521430638,9.459228061331782;5.2018188925504205,4.663500624106021,-60.591228208565724;-2.850894850835049,0.6743192040530508,-108.06997811421019;-0.7358409154284814,2.154519486629415,-71.63614483542989;-0.23764127417577163,11.188139623797436,-63.77632909790608;-1.402504450908913,0.6523985989709443,-106.4481871708602;-9.991710601118989,3.215074725766551,-64.12588474160756;-4.831805685929372,15.678980715690221,-67.04680471993646;-5.065799721091591,1.9702128900244982,-105.80780764738503;-4.550203806591589,-0.7025291739977544,-66.93080788909327;-23.309600830078125,17.705230712890625,-5.847499847412109;8.172729417143902,2.3678435640518742,-62.136154094873845;-6.984173812590808,7.834886244008745,-98.24730819714766;-2.235953083524331,-4.236114960883386,-62.2403294161417;
32.415131946775595,-60.81360665270895,-4.824105541081135;31.243633467471376,6.308902087269615,-9.960092538258387;-9.821284453891499,8.128606995946484,3.7307381069033347;10.233720878554664,-6.926339146245478,9.130448779177073;5.200240535752026,3.9509909960639344,-62.77654247629864;-2.8509043144859096,0.674375849223974,-108.03834888040552;-0.7374108700495414,2.159001802283502,-71.41081212719175;-0.26035162974260084,10.586071788823993,-65.70357472804304;-1.4029894852958673,0.6508169288368711,-105.65498282334116;-9.992954325228999,3.2180839970891717,-64.15840914509933;-4.91427672786098,14.336423414853371,-69.05104895141753;-5.071229875648553,1.9495898270687624,-104.84690830008655;-4.548536233526008,-0.7061970352405302,-66.8770756354192;-23.309600830078125,17.705230712890625,-5.847499847412109;8.130071579642879,1.3271652083887382,-63.7748173584514;-6.980875059244475,7.855660637770882,-98.70889350715044;-2.2490093288555713,-4.210884039442536,-62.86050310806279;
32.30023277699142,-60.80244146787518,-4.514055755979843;31.37467931771917,8.254216005665196,-8.94911879443491;-9.805535340924543,8.129636802959043,3.4997861258151577;10.16274355693266,-6.937379007440204,8.271220641854026;5.16375496634712,3.094246583794241,-63.33512027062888;-2.850911250463086,0.6744059965098255,-108.02106245053855;-0.7382299514013227,2.1613252314131817,-71.29379285000218;-0.27731856324105725,10.157043271580056,-66.82108339154038;-1.4033027629448134,0.6495096689270313,-105.00182198257272;-9.995429996965342,3.2236190100767796,-64.22034231589042;-4.940901258108861,13.877512841954667,-70.0299642154838;-5.07294156349015,1.9425619989788048,-104.51923415981443;-4.55321885391946,-0.6948859648822843,-67.0372162813114;-23.309600830078125,17.705230712890625,-5.847499847412109;8.108885429719354,0.8145134042420059,-64.55957250873386;-6.98038347247156,7.857558101284191,-98.74934941308338;-2.2586173791302335,-4.1917896292523515,-63.32766193924871;
32.06392997745556,-60.78187247422009,-3.8781384526146496;31.364051246937883,8.076117350530719,-9.041795584055588;-9.774704801690419,8.131429329927654,3.0478079001019065;10.168162648141893,-6.9366274869150635,8.33679185176361;5.191361245644109,3.2710036021882165,-64.53725354184112;-2.850915151457239,0.6744037898832527,-108.02134666043378;-0.739392202270323,2.1647375245921725,-71.12288721496239;-0.2813683515663056,10.066140863992228,-66.85079391801875;-1.403286676645156,0.6495366317773538,-105.01397472831238;-10.015677503082038,3.266844710949246,-64.7114638201835;-4.934017747193735,13.98470533218677,-69.99751026059283;-5.070138992788384,1.9531073332219084,-105.00631509470847;-4.55012456010983,-0.7019992826665704,-66.93548419552924;-23.309600830078125,17.705230712890625,-5.847499847412109;8.120067819440589,0.9988191905105621,-64.11638750488348;-6.98206037295397,7.8455581880471765,-98.47982024239272;-2.2660762627429056,-4.17684645722329,-63.69273974226317;
32.07007723925297,-60.78232254262749,-3.894683645122095;31.406480910389988,8.803012957050772,-8.663283479275254;-9.690014983833628,8.13507119330243,1.8064388728503786;10.15208804888723,-6.93903464504758,8.142459956363762;5.204259304555445,3.4758181168868125,-64.67762131944183;-2.8509159679189304,0.674388230170484,-108.02934956168261;-0.7383581278778132,2.161769374690576,-71.27111711787438;-0.28571307377140615,9.961294126395973,-67.05762260604348;-1.4032889391120364,0.6496058617895125,-105.04811865362839;-10.039293375748674,3.318256406322984,-65.29369336596763;-4.921948944078356,14.174066210164531,-69.89155462400278;-5.067254920122517,1.963592421298154,-105.49287112697598;-4.560440887274749,-0.6774558156639998,-67.2853236553719;-23.309600830078125,17.705230712890625,-5.847499847412109;8.107784525766878,1.2560725725210107,-64.80181114492018;-6.9823492109094865,7.843707604630599,-98.43848999114371;-2.2712721926812227,-4.1662249742890545,-63.95167024436675;
32.2332041627436,-60.79630309343748,-4.333462937215623;31.44113373190981,9.460472855224431,-8.320507144721315;-9.690473738608302,8.135058254216478,1.813629777920731;10.190333374864487,-6.933271360549685,8.605044372518606;5.217999418538369,3.4831060230495106,-65.59154353210032;-2.85091378455154,0.6743616785425581,-108.04365964961744;-0.7415368035014702,2.17107368277794,-70.80632086379092;-0.27978984243436955,10.056358392546773,-67.73223766352162;-1.4034262000835689,0.6490539896218473,-104.77438411799439;-10.02031034579395,3.2766463861441117,-64.82313059832163;-4.949611997937035,13.71505898643479,-70.57981208672643;-5.0703868716005855,1.952099040081805,-104.96016605045934;-4.552361926071707,-0.6968182583983775,-67.00988497976059;-23.309600830078125,17.705230712890625,-5.847499847412109;8.11436574851226,1.0624254878256947,-64.41160599225051;-6.984622068655943,7.82855712666664,-98.1004952897903;-2.275800033433649,-4.156976627396236,-64.17726910393561;
32.5207440482429,-60.82445938260706,-5.109458643596421;31.473128526503753,10.130994537948563,-7.970529220845946;-9.727448443310609,8.133682167069761,2.3551773724436966;10.202610790911363,-6.931349103337272,8.75356989296324;5.210046345942976,3.346141692738245,-65.53892470531143;-2.85090946171257,0.674330319730646,-108.06099452702581;-0.7407289901217189,2.168679436095516,-70.92684010849048;-0.2864826049173648,9.90088373285318,-67.91608366972248;-1.40339062980617,0.6490306353924951,-104.7641618267652;-10.029295983505767,3.295967763706355,-65.04277793409224;-4.947841196554295,13.74187579874417,-70.59249718007996;-5.070365289808185,1.9527138510247077,-104.99014105999655;-4.5673676281019855,-0.6610852725412826,-67.51905827760382;-23.309600830078125,17.705230712890625,-5.847499847412109;8.122598335744174,1.4349719477628144,-64.16447272905336;-6.985708718930452,7.821398190421542,-97.941701928398;-2.2926568408037644,-4.12144472393746,-65.03775070270854;
32.35570583281671,-60.80780355664999,-4.663711030115943;31.530992347743815,11.598223409590233,-7.2038904056448505;-9.691640925681554,8.134993869230627,1.8301106288473505;10.180448497393453,-6.934717447574753,8.485293278860908;5.200560601206225,3.15558921034741,-65.57797175198652;-2.850903500306568,0.6743031689275409,-108.07639567170082;-0.7376208739267148,2.1597030206260106,-71.37615512278063;-0.286316807417037,9.900293051240181,-67.98899662551557;-1.4033674913610734,0.6493503479898578,-104.92490451844895;-10.034523962936323,3.3072383956694047,-65.17105818671493;-4.957353597560595,13.570202501111783,-71.06416471811352;-5.069572843973811,1.95585894307799,-105.1378662866338;-4.57380875154351,-0.6455637360335371,-67.74047729751376;-23.309600830078125,17.705230712890625,-5.847499847412109;8.096847575158526,1.0215431856534805,-65.22483774648046;-6.985812025943261,7.821601035395873,-97.94760908634143;-2.3096582323164077,-4.0842270228054325,-65.93267077139339;
32.242909147461525,-60.79733053047346,-4.359791504082688;31.530775293647903,11.592672334716415,-7.206767755930694;-9.63881676512046,8.136333172848719,1.0567561455325336;10.142378868286553,-6.940232818129307,8.024864709667069;5.1997113508850985,3.0357155352005294,-65.96056356863932;-2.850897249632165,0.6742876780476128,-108.08588297629055;-0.7384165682817341,2.1620483325175988,-71.25977961657844;-0.2933468432553976,9.726070334653027,-68.40835479190417;-1.403403725811859,0.649240905403778,-104.8725210085644;-10.03582298597583,3.3099032271151456,-65.20190217888434;-4.971352448631156,13.329865464158187,-71.52110818294122;-5.071511639857112,1.9490037064689822,-104.82209519951243;-4.583672020861947,-0.6212928422849058,-68.08462658076034;-23.309600830078125,17.705230712890625,-5.847499847412109;8.084899563003129,0.6504004815302347,-65.62925557850285;-6.989093419824164,7.79804759972456,-97.42277395673354;-2.319634527478941,-4.061580803612806,-66.47401938126708;
32.241011988330925,-60.79725299036966,-4.3548140632941905;31.530981215815807,11.599307777763482,-7.203334519822464;-9.632609533782842,8.13643282829066,0.9654183300585064;10.166248270127518,-6.936772721382494,8.313304775449065;5.21185270839201,3.3616223937776795,-65.59951144001379;-2.8508913696606233,0.6742839204937456,-108.08898688061281;-0.736739067425213,2.1571279184351226,-71.50584284434939;-0.2891884769009942,9.82954215429612,-68.15429624482208;-1.4033087296001594,0.649546230061887,-105.02610116306425;-10.0462217647237,3.3327054875860815,-65.46001338277036;-4.9624338039845,13.479087228153798,-71.29627694475289;-5.075359394013941,1.9344521937037982,-104.15088457552446;-4.588191869907496,-0.6101231587511375,-68.24266653320063;-23.309600830078125,17.705230712890625,-5.847499847412109;8.091565837790386,0.8399012072705387,-65.39254865569569;-6.995208602176276,7.747657298416063,-96.30039717722956;-2.3255653318497025,-4.047908354525979,-66.80014782827132;
32.21015496938397,-60.79454817888124,-4.27179978078839;31.50323887537776,10.841309959612248,-7.599566297186559;-9.630482486669186,8.136459404768141,0.9343413146426371;10.145367233881592,-6.93979737673343,8.060851863086949;5.205471995199412,3.337991595719041,-65.2430407126659;-2.850887221315037,0.674288702080612,-108.08741035746726;-0.7322839136104282,2.1437008531858686,-72.17427880040461;-0.2839011847986766,9.96988011446336,-67.66026991283343;-1.4032042357372432,0.6500995301026985,-105.30288748948088;-10.060998629193794,3.3657326345740026,-65.83237503292402;-4.952557140779247,13.654425566450735,-70.85890727749356;-5.074326550395935,1.9387401253235659,-104.35030319196883;-4.608324396723942,-0.5585109849692058,-68.97062682706151;-23.309600830078125,17.705230712890625,-5.847499847412109;8.097389299816552,1.1857572919503827,-65.26009440880502;-6.997039761974584,7.731052915324602,-95.93125270027798;-2.339986050839113,-4.013574707225654,-67.61483761947835;
32.340685671706346,-60.80658976941322,-4.62353078546508;31.529754731352952,11.566779107966777,-7.220313127509183;-9.601270942205428,8.136831591987848,0.5067941661300601;10.076201273750558,-6.9492007025569436,7.225818379205199;5.178526358804087,3.0447871591182807,-64.46945416413905;-2.8508851998287414,0.6742966781218889,-108.08357055405105;-0.7263735758598067,2.1245665352665006,-73.1221849445962;-0.27996731327057967,10.07035656569313,-67.36374026296289;-1.4032040771453729,0.6500941262156212,-105.30097737299445;-10.071243744722393,3.38907746172947,-66.09478929454258;-4.945651484268016,13.786422913101577,-70.3737717269201;-5.072811878610877,1.944794382988769,-104.63086086614624;-4.623289223138525,-0.5190543939447652,-69.52519925846042;-23.309600830078125,17.705230712890625,-5.847499847412109;8.123097536428434,1.7875004081378414,-64.24655137347825;-6.994161564426719,7.7578129228638995,-96.52703667361072;-2.3626290326679134,-3.956628536262439,-68.95512398691329;
32.3255193238817,-60.805133850734094,-4.582615291434083;31.53457626264776,11.708407579642634,-7.146219645105253;-9.592808807597258,8.13689616322056,0.38292743218401526;10.024535037290587,-6.955576997076038,6.603201078743247;5.187646429651216,3.0359926321786554,-65.11821663764925;-2.8508858917149373,0.6743047095675482,-108.07924941430602;-0.7257602232351377,2.1226923651154137,-73.21465071681568;-0.2900336751448017,9.852997121037083,-67.30633665628685;-1.4032640253312798,0.6497454184703942,-105.12734198876848;-10.076607438218865,3.4014542337559477,-66.23352035504777;-4.940170789466615,13.876601358697384,-70.23974440390388;-5.073224607276431,1.9431772183051028,-104.55586326877867;-4.623331533229936,-0.5188530413644765,-69.52762282425525;-23.309600830078125,17.705230712890625,-5.847499847412109;8.130833642592052,1.9867186727294337,-63.94178391636396;-6.997134609263219,7.730137834724985,-95.91056629540142;-2.3633308024919755,-3.9547863586262144,-68.99732941704433;
32.40132107212284,-60.81242798998206,-4.787069661178707;31.50473437195443,10.880023265527207,-7.579319414019311;-9.593247638969132,8.136904993103268,0.38946953602115286;10.050019385418656,-6.952537555285779,6.910251267263193;5.185536251401012,2.936370752927184,-65.33863740943464;-2.850889434254619,0.6743108593090447,-108.07539230521064;-0.7295061784738808,2.134790157085314,-72.61589536746722;-0.2892820586640597,9.83747075262041,-67.93589083075165;-1.4032162188979727,0.6500348963080591,-105.27021881076587;-10.065338487502412,3.3757613186634203,-65.94469229757966;-4.9454652124253835,13.773913221167227,-70.66573550366061;-5.075698797024551,1.9331887684699836,-104.09316269874459;-4.628046155093798,-0.5059665515682066,-69.70807457419728;-23.309600830078125,17.705230712890625,-5.847499847412109;8.102833914574525,1.7117478986734418,-65.19456233650307;-6.999313884953125,7.70720820301144,-95.4001006221849;-2.360204239105848,-3.9627693377470825,-68.81022755389773;
32.33205800704712,-60.80561095625593,-4.600111902369825;31.46836389796111,10.025351627234226,-8.02576088172119;-9.581126916028959,8.136980308188656,0.2122457574888852;10.067218733779017,-6.950396295079206,7.11766630773022;5.184321984454736,2.8320502831059646,-65.64245605782777;-2.8508953742987924,0.674315231183604,-108.0719132614812;-0.7305365889151121,2.137949421513393,-72.45892318119178;-0.29435901128952013,9.713253057525353,-68.22419059930044;-1.403305503684352,0.6497176358968165,-105.11021232985652;-10.053262551900511,3.348534827306281,-65.6379311123138;-4.952494968211417,13.617270336155265,-71.60878374998504;-5.0756939847749,1.9328519991116064,-104.07577441698234;-4.613227245162614,-0.5456309522079894,-69.15177193000645;-23.309600830078125,17.705230712890625,-5.847499847412109;8.075120786642554,1.366913731081179,-66.44805879344061;-6.999067420139385,7.708868440816915,-95.43643930061;-2.3527654742009583,-3.981924069277553,-68.36131453655987;
32.29903058568498,-60.802386894789926,-4.510894320785705;31.499944736074994,10.757743728010162,-7.643230959319965;-9.558904079766407,8.137010726709219,-0.11327557406117172;10.068593133268383,-6.950293072432076,7.134324456094076;5.181243919102015,2.7513239191717704,-65.73164537902059;-2.8509033129749137,0.674317260440179,-108.06920556427767;-0.7254297355374038,2.1213085840764183,-73.28198489363851;-0.29456025360698024,9.716331374650775,-68.06304297989806;-1.4029697619945332,0.6507132174275444,-105.60322476924193;-10.085186752561242,3.421664278903023,-66.45905354121109;-4.932225337809811,13.954339624822044,-71.0873694900774;-5.0730346299260605,1.942739002907682,-104.53016548539678;-4.627700331721931,-0.506880520513322,-69.6953713563287;-23.309600830078125,17.705230712890625,-5.847499847412109;8.096007520013424,1.8612002273343298,-65.58614926902285;-6.997380773686951,7.725177226286369,-95.79868832336018;-2.3593322364553537,-3.965051889267597,-68.75695095874637;
32.27692480551097,-60.80026269324038,-4.451261812468383;31.517931179242755,11.226679820012002,-7.398127518416359;-9.545012997458699,8.136972391646506,-0.31634502245161045;10.10691254226169,-6.945259054565543,7.596628431689011;5.186403186639568,2.7303769682996553,-66.17693621320196;-2.8509120704806503,0.674317528894223,-108.06735792727525;-0.7260228873947954,2.1232638459133573,-73.1851636360382;-0.30195775238243516,9.542980193863725,-68.30783078878258;-1.403000532645727,0.6507043345579295,-105.59542562803742;-10.091030139320985,3.4353967004053256,-66.61255365693057;-4.939105555548089,13.863429371119745,-70.81307787927267;-5.0732413493403,1.9415326139906983,-104.47154960069055;-4.621692710475841,-0.5228869556295177,-69.47073350131633;-23.309600830078125,17.705230712890625,-5.847499847412109;8.113522243285402,1.7017821304659573,-64.68726119173284;-7.000340024970208,7.6932200418533725,-95.08804102186852;-2.36263006753979,-3.956737274787634,-68.95229361051781;
32.42279114452553,-60.81420990720534,-4.8446049193312835;31.57962813890539,13.436228579005983,-6.241968739602587;-9.567649814028863,8.137022107097057,0.014859249209550285;10.147827236101836,-6.9395718615869875,8.090876818791765;5.200927114428724,3.0168353890171375,-66.12753245930298;-2.85092090039938,0.6743149160499206,-108.06685537120802;-0.7348978626475282,2.15145795926848,-71.78684961593406;-0.31503829714513787,9.264729306693892,-68.13925728312238;-1.403526048920832,0.6486225774789416,-104.556381279791;-10.056430673897447,3.3559517608024168,-65.72099495436888;-4.970617270120323,13.410138793553523,-70.20508143198074;-5.077450799720997,1.9241431934912587,-103.66590647273968;-4.611150831748476,-0.5508439690206104,-69.07879258789215;-23.309600830078125,17.705230712890625,-5.847499847412109;8.130071692549121,1.7761877946353626,-63.93406191971289;-7.000897961391653,7.686098585348877,-94.92990317962129;-2.3648299810607694,-3.9509782049946414,-69.08735638021761;
32.49768462168063,-60.82201254818739,-5.04701108369547;31.538377326185415,11.843964671867374,-7.075330895865992;-9.59746459499059,8.136921937745361,0.4514254537351512;10.150972424264394,-6.939168408703647,8.12893680125723;5.200841465550361,2.8719681846044995,-66.675432927068;-2.850928270073565,0.6743100179625193,-108.06783555246632;-0.7404976971487724,2.1680637109816794,-70.95828047829069;-0.3061745708991699,9.448938598485112,-68.34868588777917;-1.4035551488585332,0.6483559614736676,-104.42102743380555;-10.067549817721883,3.381269450961775,-66.0058760254608;-4.939601866471616,13.895841818292514,-70.06525366264384;-5.072500279067039,1.943179502064628,-104.5423709105221;-4.620379958975002,-0.5265191761516883,-69.42143937557769;-23.309600830078125,17.705230712890625,-5.847499847412109;8.125734239474234,1.8427388721960591,-64.16146038242982;-6.9974298384740905,7.723140348348728,-95.7535700159022;-2.362455583712192,-3.9573102488400567,-68.93937766691967;
32.81282795157081,-60.85775024272018,-5.901266041797419;31.47149100693631,10.091788067607268,-7.991098338349128;-9.576619840159841,8.13703234718332,0.1461964886584397;10.109303294716458,-6.945013501879224,7.62562143697941;5.1830011458386505,2.6626188378988123,-66.20126369895931;-2.8509330129923556,0.6743029975964053,-108.07039611701217;-0.7337443670431648,2.147859535318589,-71.96588895554387;-0.3118491171277974,9.318688071033883,-68.45700561204227;-1.4034424369981828,0.6489028287581329,-104.69026898835716;-10.094863903366875,3.444666072994444,-66.71637799523975;-4.927212223636083,14.058067206579658,-70.59760085791794;-5.070425506537365,1.9509458308505339,-104.9000856740742;-4.625330413065891,-0.5131931251232762,-69.60781179891538;-23.309600830078125,17.705230712890625,-5.847499847412109;8.113771356638495,1.8386842898763325,-64.73182138524615;-6.996790228375791,7.729151187451778,-95.88763399316124;-2.3620245259707926,-3.9584977258102674,-68.9129260130374;
32.5043416542452,-60.8226575651108,-5.065022841350698;31.5238534763436,11.395025695233082,-7.310107816511551;-9.532421378049952,8.13688958926381,-0.5005347917561149;10.112249104421071,-6.944592463133033,7.661119605120559;5.187937719811861,2.784730898289065,-66.08721190039353;-2.850931968078493,0.674293327358902,-108.07541000898686;-0.7319744103226727,2.1424143092871546,-72.23648863313261;-0.3115901637857267,9.33191682257963,-68.29174842718854;-1.4034544178722204,0.6487333752006782,-104.60619246091602;-10.092380658297312,3.438852556537771,-66.65142880609145;-4.9389795735772015,13.897810707716827,-70.21085297426677;-5.071475958533885,1.94708144204175,-104.7211384948168;-4.619974482502851,-0.5276396389622389,-69.40514829482251;-23.309600830078125,17.705230712890625,-5.847499847412109;8.115000016446892,1.8092064691254048,-64.66272606209228;-6.997011137857402,7.727340617649061,-95.84752516986303;-2.357728409612811,-3.969478556207957,-68.65505322192615;
32.631253434601845,-60.83660957821597,-5.408708666619624;31.564952546473904,12.770358902811765,-6.590567172506515;-9.557170841070619,8.136993062878338,-0.1386381763082376;10.116385390143039,-6.943954780963779,7.710990435811574;5.187991736815449,2.956279462718675,-65.44445866144774;-2.8509145163372227,0.674274022956261,-108.0900560626273;-0.7352846208867525,2.152646095906066,-71.72836889389092;-0.30684542990255326,9.469249428169901,-67.64304603232449;-1.4035002104736058,0.6487302887601688,-104.61301297280517;-10.089767780829774,3.4324166650155687,-66.57969779256003;-4.937057043162507,13.943123967643887,-69.91129373863107;-5.073387748042948,1.9407517450943093,-104.43529477868466;-4.617218881181621,-0.5349726082760302,-69.30208808036774;-23.309600830078125,17.705230712890625,-5.847499847412109;8.134696775323107,2.1668409761313225,-63.82252837131001;-6.996570810942416,7.7328109862116925,-95.96923171220311;-2.35444620930111,-3.9776896732819917,-68.46091837117494;
31.68988589607703,-60.760326101377565,-2.8794140745289054;31.323139465393876,7.49708942160971,-9.34255702149109;-9.580121146341424,8.136760112261507,0.19733392832518248;10.22342602312175,-6.9279537855734725,9.00562595350814;4.283724221148853,0.8767535013248053,-29.839749532886067;-2.8474733929740137,0.7173702765443976,-86.44247533186424;-0.785707533927578,2.2730674610705766,-65.55180909725408;-0.48008940198014327,8.18776496464757,-35.55399697988465;-1.4046376583075262,0.6102899616957526,-85.97426461129193;-9.90570470137477,3.0655483851459855,-62.35428742131704;-5.107679502544471,14.402047900436923,-34.94475595830564;-5.087887667747689,1.557946080383511,-87.14916258181944;-4.5090686865203695,-0.7772044108070231,-65.81648331404554;-23.309600830078125,17.705230712890625,-5.847499847412109;9.023158051086464,4.000264159537269,-35.65256165464718;-6.981963633523067,7.202057392299806,-84.17296535973436;-2.336551853264454,-4.01854326985711,-67.4836071406894;
27.241226485802244,-61.01911852171884,8.7681682929787;30.191697692168127,-3.0677558851737263,-14.757823097510808;-8.760447386547938,8.051544241847049,-11.871007117698285;10.462861965567626,-6.882230210607088,11.923349279980345;3.144260615000588,0.2838088036786992,6.818584013180267;-2.937295219660412,0.8234018454977692,-11.772324443179588;-1.494811179761365,2.91955231836493,-18.82862837667595;-0.7765013389048522,6.271322761761171,5.194206146438967;-1.303483216102513,0.5004848269333101,-7.412643440974563;-6.610433546405346,0.30379067262874715,-16.79218886281913;-5.464480374899431,13.736500743863004,3.041224062258486;-4.016325825020808,0.3563027777523644,-8.04660967530615;-1.8704155584093929,-3.147623068428518,-17.802867263072205;-23.309600830078125,17.705230712890625,-5.847499847412109;11.416650661822755,14.78962991675572,22.435564346574438;-5.37848518386408,5.054999189175735,-21.489526204260834;-1.3327666782846017,-5.217982679362782,-32.72844042541065;
28.856355772492964,-60.80668667406874,4.578512588295928;30.367681395001284,-1.8528345931342,-14.145231380864097;-8.541303879836358,7.998761109229403,-15.15999036157341;11.045545416130254,-6.717102989273162,19.182232739132107;3.424392936453687,1.6016048338814017,0.19129022834383935;-2.931331938606802,0.8221863537172581,-14.794005392919859;-1.5061867386189816,2.9235239173403365,-18.259878817501388;-0.7614571961551949,5.7808046371244055,-1.6498639809821274;-1.3059410509940879,0.5006996515651503,-8.61837882797554;-6.463665452374269,0.259694242124753,-15.214846748859742;-5.472674391873597,12.607699519427056,-4.29903711282337;-4.066728566815011,0.3629806311404334,-10.333727185593126;-1.8216671780397455,-3.165029573642634,-17.12490462689336;-23.309600830078125,17.705230712890625,-5.847499847412109;11.105237851578579,16.072503793732466,16.71918504414576;-5.3095705969734155,5.027991766609248,-19.84704146796916;-1.106548688598017,-5.350796643460896,-26.99047868026318;
29.951682748518067,-60.73603299387187,1.7193687738075898;30.416475546451718,-1.5027462215563459,-13.968208189383514;-8.730553589983995,8.045544705041893,-12.316164927362554;11.17828828519091,-6.668540012120192,20.87585696424115;3.417560381547181,1.6721806669598402,0.535964240328215;-2.940055596727584,0.8241484157308323,-10.356683038647853;-1.5746279857559642,2.9438965224679152,-14.88076944750911;-0.7970219908690355,5.065023108095466,-0.9996006006486624;-1.2974944872231926,0.4997021298030136,-4.516946320851066;-6.246286957154825,0.20495717372536593,-12.909354289635075;-5.52471592871997,12.066298177280855,-2.1829990260020544;-3.958640561817687,0.3478474899021181,-5.432589065001647;-1.6628483625247368,-3.2105886497581855,-14.959229666244354;-23.309600830078125,17.705230712890625,-5.847499847412109;11.122654976113898,13.984231234406463,15.312999592266781;-5.0664970036656936,4.953040093296652,-14.198584449463869;-0.9711784614812496,-5.414918910493839,-23.71677436472838;
30.66780436344184,-60.7245118341042,-0.163667790533653;30.577400687561305,-0.2832260667678659,-13.34926132439983;-8.930212899011094,8.08427790447042,-9.34634719879987;11.168629207561676,-6.672308318566086,20.751705678266028;3.5130768500267116,1.4714256680159714,-2.8773756336062615;-2.9439117516568256,0.8247838169433966,-8.42491965985465;-1.6393717669879464,2.9592049038422488,-11.734461038774697;-0.7973021235582785,4.832829444416465,-2.8474775356283555;-1.2963860851966296,0.4996186116655927,-3.973769825947869;-6.1012568721936224,0.17360177500850005,-11.38335043137458;-5.522464271780321,12.032672877569702,-2.6813766388654052;-3.9577140294275073,0.3477557590523498,-5.387699697933147;-1.5715584637457563,-3.2338859102903186,-13.723626172588993;-23.309600830078125,17.705230712890625,-5.847499847412109;11.079186234574513,13.559707619379665,14.054622608044994;-4.949717191109147,4.926263265381582,-11.539437615388392;-0.8789420799818668,-5.453405765684576,-21.53248783758125;
30.525085736043334,-60.724561360832304,0.21273390636866019;30.64649817383168,0.2685027567682683,-13.0683534532279;-8.902126574562052,8.079518132277611,-9.761956017100818;11.165990928405389,-6.673318405951835,20.717797154481453;3.568450997592394,1.3380229609723302,-4.886292129699756;-2.9455068236891417,0.82501038036489,-7.615559827422954;-1.6851754417957971,2.967802298669467,-9.530451998015186;-0.8057960675984347,4.427158368623016,-4.61005441963794;-1.2951787922589248,0.4995420958363684,-3.401310986885054;-5.934660406635182,0.14259629155859865,-9.641452731450844;-5.508136655577033,12.191352169712172,-3.203776546232877;-3.960528706128538,0.3480175785431309,-5.511130607108136;-1.492937558997012,-3.2522708921491774,-12.665648373994642;-23.309600830078125,17.705230712890625,-5.847499847412109;11.073917275693523,12.710861400412568,13.329417092449505;-4.85198968807794,4.908226520078687,-9.334563420851698;-0.79839410260654,-5.48369409829284,-19.65114691749706;
30.811161198811863,-60.72547555461261,-0.5421230939060138;30.57302347669453,-0.3185288480968431,-13.367224694360686;-8.939061971258123,8.085773415203757,-9.215028560683054;11.166746255369063,-6.673108035992582,20.72751181227544;3.5980469872825966,1.4800127008814137,-5.578515462799722;-2.9476323711636305,0.8252734414826821,-6.5599163335950745;-1.720642918656302,2.9732143536634563,-7.833418863714032;-0.7986042623615353,4.421532704578693,-5.9772187133937695;-1.2947877930120395,0.49951749918690763,-3.2005153091860414;-5.797122826615833,0.12092308980178368,-8.210084826384389;-5.476428332673189,12.521165766368735,-4.491925781923708;-3.9773565803031,0.3497341660283292,-6.26569848823172;-1.4513219744547878,-3.261440357522718,-12.106732283012876;-23.309600830078125,17.705230712890625,-5.847499847412109;10.980222954127978,12.787771951721167,11.391861349180058;-4.797565962896543,4.899870051253361,-8.111474231500997;-0.7325539129738061,-5.506229484955289,-18.131604985081232;
30.95810483943812,-60.72759522228627,-0.930651043416427;30.51847636835278,-0.7405225645556346,-13.58168414580324;-8.92777622531521,8.083908033093353,-9.381804143842963;11.164344507454299,-6.674039430853267,20.696649693966243;3.6279861908272215,1.4105570710001476,-6.661219637102707;-2.947422219990731,0.8252541191821934,-6.6437761578308425;-1.7500535633279233,2.976900329519456,-6.429355310382009;-0.7821452711355472,4.759249850816968,-6.2327547933393;-1.2952207358902867,0.4995407711197299,-3.4016746276092675;-5.694397056782494,0.10704247946957612,-7.144829883050647;-5.438387884121965,13.028135303215526,-5.206985737310108;-3.9872682676756046,0.35083394974174453,-6.709980214776467;-1.4249737117768142,-3.2669558666049126,-11.753721049447073;-23.309600830078125,17.705230712890625,-5.847499847412109;10.91361834579561,12.966105563737433,10.109266946928567;-4.7643132921452045,4.895300745934051,-7.36657119412337;-0.6921626943297382,-5.519108326774494,-17.20376056504487;
30.968305353557096,-60.727696423531505,-0.9575491595262671;30.508216432744604,-0.8184958061871059,-13.621304828153988;-8.897285218268436,8.078688513344634,-9.833510276752891;11.17357265506311,-6.670541191862387,20.8153013979249;3.606032537621367,1.7474363270339546,-5.356781785892921;-2.9481089429368903,0.8253322273212447,-6.303245890173638;-1.7738022960319595,2.9793324006220527,-5.301728953905686;-0.7615913211861817,5.164683849602374,-6.69189083705524;-1.2950278476825547,0.49952936056477715,-3.3137516308620896;-5.588233410027996,0.09476465334073414,-6.047145295736639;-5.384261470909872,13.917681869710973,-4.878984626297537;-3.971272282007928,0.3490196898022748,-5.983463226971416;-1.3474511138995675,-3.282346962275918,-10.717721261640607;-23.309600830078125,17.705230712890625,-5.847499847412109;10.89958175827133,12.290501694246394,9.352481274830858;-4.717472574381321,4.8896484873748705,-6.318909140490965;-0.6459388255669657,-5.53293551460738,-16.150677559654856;
31.31086893820435,-60.73759135241435,-1.8662648720776662;30.584897592433894,-0.22435140874436144,-13.319304368686142;-8.935194719673001,8.085132557125217,-9.272580262570477;11.181037131551863,-6.667684411809592,20.911211900565423;3.6491851725952307,1.7148864974796605,-6.7959173260249415;-2.9472819324198367,0.8252374413568164,-6.71774221005847;-1.7935333678074503,2.9810080803089845,-4.362751751955614;-0.7431017259026913,5.517927301126703,-7.198708689508464;-1.2958872251776148,0.4995843777039437,-3.744820986828028;-5.513832665109213,0.08734530063786916,-5.279009889080486;-5.304597681419817,14.945549646806798,-6.280360470625897;-3.9597213071903106,0.3478383157018559,-5.46274084176115;-1.2577827077856198,-3.29836965154517,-9.52442035521853;-23.309600830078125,17.705230712890625,-5.847499847412109;10.87773684206726,11.993312740943615,8.699088866302024;-4.716115022989097,4.8894683107160715,-6.287727230411294;-0.6327018693036394,-5.536741107131326,-15.849010514740323;
31.311307703878967,-60.73755218626302,-1.867359916382524;30.616676301074563,0.027615375255427566,-13.191054999263166;-8.917554943457727,8.08217602632053,-9.53372903345002;11.170585474867531,-6.671787166968142,20.77693818111375;3.6479872325910225,1.7222319609961363,-6.744272429445086;-2.9460587099904623,0.8250885789714195,-7.325119119739103;-1.8058982223514883,2.981889251329885,-3.77767950444089;-0.7372144996515623,5.638293331453459,-7.28448030363101;-1.297761475182374,0.4997156320976315,-4.617258071443501;-5.484770841152183,0.08473263486361138,-4.979466952837685;-5.272304216510578,15.314048832239454,-7.1707239537903895;-3.967935611469643,0.3486366043937296,-5.831036605697914;-1.2217605512267078,-3.304301060476779,-9.046053512616504;-23.309600830078125,17.705230712890625,-5.847499847412109;10.844419363052722,11.690269530498187,7.807841432980777;-4.730675051267758,4.891097603479211,-6.611867556452872;-0.630637602976762,-5.537383490733288,-15.801689357600221;
31.1900656784459,-60.73328450616627,-1.545260597452844;30.447598387699436,-1.2732545589599322,-13.851923111256594;-8.805505931219852,8.061444164336965,-11.197200057979508;11.168757458893843,-6.672489483744247,20.753422154668776;3.652956997644332,1.8602141714318252,-6.657547185181088;-2.9455984126987484,0.8250279319659588,-7.557325921967399;-1.8184385620978623,2.982652584131525,-3.1838206135760103;-0.7355403203254176,5.627297433041454,-7.687101986166436;-1.2988938815925206,0.4998141436410842,-5.171502952623045;-5.453140794567079,0.08204773700982532,-4.6533212838027245;-5.2425039459721425,15.69258831573351,-7.668149302388773;-3.972234364296698,0.34908498481454636,-6.025286060379494;-1.2011185851083095,-3.307569236269009,-8.772141171600198;-23.309600830078125,17.705230712890625,-5.847499847412109;10.790543502407239,11.322946425106032,6.453762629423521;-4.742932678144558,4.8925538174358305,-6.885881952265533;-0.6270322223624385,-5.538381448706726,-15.720431591476157;
31.279518458274385,-60.73639453833258,-1.782943059728563;30.478103430058784,-1.0457996749905654,-13.736619193467153;-8.847995539591206,8.069704416622738,-10.565565888797;11.176211084969163,-6.669578117236713,20.84920441723237;3.640880811689016,1.90934497650402,-6.183620659441545;-2.9466125830799035,0.8251574089418295,-7.051856682897769;-1.8351738367608126,2.9834689965327086,-2.3921214304233565;-0.739131475378237,5.569853866255365,-7.495835899606215;-1.2990709738131452,0.49983135663385747,-5.260364271430808;-5.424000635710285,0.07972723177310556,-4.3528851494391825;-5.219966808339375,15.95940593332833,-8.177248109846087;-3.9650731362254037,0.3483642205373144,-5.704362020224327;-1.1757833917808598,-3.3113746010956633,-8.43652473605678;-23.309600830078125,17.705230712890625,-5.847499847412109;10.849153401956077,11.361100070072618,7.705965565694121;-4.706732303596253,4.888435866778399,-6.077890470199529;-0.6046955697403474,-5.5445456817129335,-15.214661430591661;
31.403850314617983,-60.741377448597966,-2.1136883605887373;30.582079382983785,-0.24724435827120228,-13.330970856548662;-8.836338048454097,8.067491434666238,-10.738391650019254;11.170613143587925,-6.6716736715355,20.777220969705432;3.664333100645094,2.348723770381249,-6.156850069427861;-2.9462492828846814,0.8251114987767479,-7.231410261589508;-1.8408207828508993,2.9836910247814155,-2.125267675342336;-0.7114964665252403,6.233593654493038,-7.101657523798645;-1.2995332245575892,0.4998761595131599,-5.485577868193536;-5.403859129623065,0.07820378327860111,-4.145633655669132;-5.18712662405775,16.425155544920184,-8.287432279887046;-3.962223772789712,0.34810160701026543,-5.57597415402505;-1.1713708730553747,-3.31198166947056,-8.37767844493624;-23.309600830078125,17.705230712890625,-5.847499847412109;10.766223862924823,11.237405375367352,5.892714296412587;-4.737639923525127,4.891956235937647,-6.768874317368512;-0.6077878062697991,-5.543696515396629,-15.283597748051712;
31.360802041053624,-60.73964982990468,-1.9992586612698604;30.493636561860875,-0.9294216753900884,-13.677608292436336;-8.780776884057191,8.056388569863516,-11.566313778367753;11.060545964342234,-6.712590156355256,19.370077894137026;3.677022953046851,2.4515803358249406,-6.381912886575413;-2.944473515147933,0.8248666600374314,-8.13315807034417;-1.8434232605880065,2.9837853850059206,-2.000620809906798;-0.7007622702852211,6.476811901617456,-7.069602227304299;-1.3005249792396283,0.4999757085618207,-5.960235654017731;-5.402024727939941,0.07804714719808256,-4.126518659753575;-5.177882069278971,16.58856991314888,-8.052377097197393;-3.972797411316303,0.3492209388324318,-6.057884367590229;-1.2013688466172763,-3.3074492961999478,-8.775684453085638;-23.309600830078125,17.705230712890625,-5.847499847412109;10.666066242129016,10.686722142178372,3.483137169815251;-4.761204343766921,4.894899064108847,-7.296210393498429;-0.603379859883592,-5.5449020175498855,-15.184530942779835;
31.29039399562355,-60.737018392612235,-1.8122164888265715;30.51967452596041,-0.7315386595625002,-13.577175888923724;-8.806476968214943,8.061617610333505,-11.183116173740716;10.987732683149227,-6.738008755413108,18.446018874839133;3.693139053843627,2.672133515779799,-6.510760206469408;-2.942878701847797,0.8246257460880906,-8.933139473954768;-1.8466453792912882,2.98389219909837,-1.8483189214410713;-0.689594683074893,6.729860334022973,-7.0301826334183515;-1.3017349214459129,0.5001098436993394,-6.547379348991203;-5.4047402821617245,0.07822430913755016,-4.154350972899444;-5.149897481026407,16.93515351881929,-8.505704439879946;-3.9890585342546037,0.35108567642881716,-6.794969260038109;-1.2398270575683612,-3.301348448520239,-9.286012938840098;-23.309600830078125,17.705230712890625,-5.847499847412109;10.662388780595188,10.448401305857594,3.275446823982045;-4.7473516396648785,4.893198939965947,-6.988414122360025;-0.5833481360128722,-5.550264224201889,-14.731031259866805;
31.42545867447413,-60.74253913814833,-2.1716353995545497;30.48798887706927,-0.9720409084080677,-13.699235666778161;-8.79784493040657,8.059888194420601,-11.311454486549328;10.950570253251605,-6.750428606888006,17.976483480845705;3.6768603788066825,2.7947598212333253,-5.775278888214093;-2.9422652557487807,0.8245257062068242,-9.244044220482408;-1.8489667926571116,2.9839634892995823,-1.7384053338653218;-0.6886456701237963,6.739063422798254,-7.1210844470164485;-1.3028376408713105,0.5002476506354376,-7.102164996347638;-5.418913683861291,0.07926348522541818,-4.300438815816563;-5.140316512302662,17.070369476183753,-8.51974252790039;-3.987839760724893,0.3509607219021718,-6.740114899843785;-1.2547457640804163,-3.2988759881128793,-9.484576751427797;-23.309600830078125,17.705230712890625,-5.847499847412109;10.700853297068136,10.571451129573932,4.1451442204591595;-4.7216234029292545,4.8901863113730855,-6.413318383901739;-0.5619067809529676,-5.555786193674401,-14.24779833948205;
31.377355441123644,-60.74055172278089,-2.0436663437708082;30.50138929218805,-0.8706486305547276,-13.647790694123552;-8.782220769750108,8.056683370058598,-11.544678492613777;10.969838149994628,-6.74398515272039,18.219758339707848;3.681416331480409,2.8495538824122035,-5.825427323220227;-2.941294894540885,0.824364714440081,-9.724685231641207;-1.8491684949519183,2.983968245411995,-1.7284917357109082;-0.6813186310093906,6.9011004509496585,-7.125273740922185;-1.3040064084670484,0.5003976146293971,-7.660643428626208;-5.441511090020424,0.0810099784432547,-4.533160716454844;-5.12649150668128,17.242025457934822,-8.73340098018403;-3.9897315175602577,0.3512014599164653,-6.826863273998664;-1.2727939303074214,-3.295809462180184,-9.724408019179597;-23.309600830078125,17.705230712890625,-5.847499847412109;10.701077695084782,10.836474243091175,4.2964961350492965;-4.721063577666327,4.890145124779853,-6.402139427420375;-0.557813439595688,-5.556779804692119,-14.154988795648013;
31.33984784500803,-60.7390288397522,-1.9439121858790118;30.527315198040714,-0.6729814350289307,-13.547423417020978;-8.805255784096452,8.061377820792748,-11.201209953051945;10.962759713618533,-6.746345121199539,18.13028775702616;3.6822202881523136,2.688386947932945,-6.13269545234891;-2.9402778513409804,0.824181437881161,-10.24816722588688;-1.8483476389104785,2.9839439400913865,-1.765970862839338;-0.6833227101852294,6.808811310574635,-7.523681334478621;-1.3047246462559845,0.500495645190191,-8.006686318283238;-5.459786010754332,0.08249675379833821,-4.7215604327997625;-5.129426100816599,17.16460491403218,-9.016676993747195;-3.9887347924673366,0.3510797444185556,-6.780665041870375;-1.285790305241663,-3.2935870788497024,-9.897358571368748;-23.309600830078125,17.705230712890625,-5.847499847412109;10.703650304638826,10.724850237366113,4.287716169180807;-4.750215679631637,4.893594113692263,-7.053062760937463;-0.5727513719175337,-5.552989612102867,-14.492282230140109;
31.42965142483665,-60.74278582653133,-2.1827802748739926;30.582844034964108,-0.24106838006225617,-13.327865380860995;-8.809133415328533,8.062143030018376,-11.143795862393;10.960357696842447,-6.74716653273229,18.100018149706774;3.6716135126498126,2.749697860557328,-5.686132347641911;-2.940361308287211,0.82420177355846,-10.192860726208567;-1.8537737337759466,2.9840986383836694,-1.5109256498559596;-0.6785990442061185,6.949533121216094,-7.227744489755633;-1.304304471421898,0.5004361238492541,-7.800231368659478;-5.454056764219742,0.08203311809698788,-4.662609168881826;-5.127462837268254,17.214244813836714,-8.842938966886367;-3.981757816871784,0.35025377898259835,-6.464029130865075;-1.2804373067754713,-3.294470118493449,-9.825896053165646;-23.309600830078125,17.705230712890625,-5.847499847412109;10.723565974637769,11.147467475061939,4.9451368054244735;-4.760416611036436,4.894869290745145,-7.2812881134821295;-0.5808840795346377,-5.550867561155448,-14.675623795154172;
31.193016455238748,-60.73369975521009,-1.5535898316859647;30.66498699257231,0.4201420065029713,-12.991000908878778;-8.814209927545939,8.063163804798666,-11.067915847560819;10.964794990208672,-6.745727671102632,18.15610544899966;3.689312031687593,2.9753926665891766,-5.8588521101033635;-2.940205276619997,0.8241680872657993,-10.28942026769129;-1.8584122847377906,2.9842132641465544,-1.2923378364124485;-0.6711406113516162,7.104629884978509,-7.317668259208034;-1.3047482013943144,0.5004980186752157,-8.018713871778974;-5.454001308038679,0.08204066631313026,-4.661858513967223;-5.107833375937027,17.481663213706483,-8.943419412037285;-3.9850218196347216,0.35060678435256926,-6.610521381265176;-1.2914314517428374,-3.2926053477104156,-9.971501973116967;-23.309600830078125,17.705230712890625,-5.847499847412109;10.752958236154216,11.239236832972306,5.614508297029161;-4.740559087128919,4.8923744272056995,-6.836608778578057;-0.5687833589984153,-5.554023648227615,-14.40212304696549;
31.63535163070436,-60.753044196390675,-2.731001504444689;30.693807703551876,0.6597354203870784,-12.868760170474392;-8.920546250603778,8.08267786123514,-9.490026482511277;10.990216107888315,-6.737177326747438,18.477486716133534;3.6980016381714753,3.130126586747589,-5.868125766345843;-2.939849416406859,0.8241131993506573,-10.443142757740066;-1.856191748051361,2.9841639790697982,-1.3960932728362447;-0.6600955128323799,7.361700654379206,-7.210611148992452;-1.3050237894178243,0.500538549286186,-8.159226320575563;-5.452022120317342,0.0818978202714721,-4.6417852494911696;-5.093438659560546,17.707155475858148,-8.75761583745401;-3.985817704984175,0.35067062770316376,-6.644978451200977;-1.305074099605159,-3.290170196242344,-10.153209654972098;-23.309600830078125,17.705230712890625,-5.847499847412109;10.731171016521822,11.32859030955625,5.2122541129995135;-4.749817001413891,4.893473642904869,-7.0428035974837195;-0.5695643558181975,-5.553859693017097,-14.42001499684286;
31.94996341418115,-60.773230886506475,-3.5724725731569418;30.563890368660438,-0.38959473413081547,-13.403355616911192;-8.921764614056315,8.082895404010129,-9.471017790714342;10.926777031833202,-6.758342722837842,17.67668476449351;3.6777416019402427,3.1285790577056867,-5.2227601306648435;-2.939080236409852,0.8239643573662041,-10.845042651677723;-1.8536275607850987,2.9841008172930246,-1.5188276260019222;-0.6703116128941258,7.195622538066237,-6.7073052159264215;-1.304645804567168,0.5004786155586746,-7.956866965936584;-5.44484936292014,0.08133089384210271,-4.567709985015153;-5.1170016558593145,17.381086152576113,-8.7004081890775;-3.9852039531808696,0.3505737028529776,-6.617398430356097;-1.308174301679665,-3.2896361063737296,-10.195348330571829;-23.309600830078125,17.705230712890625,-5.847499847412109;10.703170536087818,11.066268952563354,4.473894296217808;-4.811555018993671,4.901864629757059,-8.424187385041302;-0.6071384086361227,-5.543861859670771,-15.269168449303212;
31.83501445019825,-60.765036937362616,-3.2643345559745036;30.607522937373805,-0.04537707026305515,-13.228228462687227;-8.873794508245062,8.074485363263657,-10.182062969894023;10.979838296870058,-6.740790253426974,18.34628160882472;3.701930580754517,3.28933298635758,-5.718180750937169;-2.9382296751408634,0.8238052121303363,-11.258493672291298;-1.85252652785547,2.9840748230549283,-1.5685273302088039;-0.6583035087626885,7.394322590156076,-7.269589785595819;-1.3058706450165467,0.5006529544957303,-8.54282690577454;-5.458645266880382,0.08246939406324022,-4.710268124854522;-5.092417250101722,17.623611014845018,-9.564359467583532;-3.9920479837907483,0.35135550912237534,-6.922349220416891;-1.3195415002018707,-3.287590395354861,-10.345394844708247;-23.309600830078125,17.705230712890625,-5.847499847412109;10.667109375975066,10.769083706196048,3.551428016038286;-4.880222785527379,4.912975706029777,-9.966104551445817;-0.6456236477311319,-5.533022905656246,-16.143638112194246;
31.804529866048895,-60.76301131760519,-3.1827036914478066;30.63734267628532,0.1942710651926154,-13.106195721160155;-8.830111674907716,8.066295581845434,-10.830916603432815;11.045842108912613,-6.717961600583316,19.183048180365148;3.731185043100121,3.3713439796858675,-6.512706694319254;-2.9376938041005833,0.8236998234652964,-11.52384703596421;-1.851840153623069,2.984057910245822,-1.6004075945104024;-0.6512464189714586,7.4793868257732194,-7.860737651152238;-1.3064211382142046,0.5007393469360253,-8.818900250965868;-5.463061377578864,0.08283957744951015,-4.755384408994426;-5.080384208473199,17.740101496853264,-9.994443792306905;-3.9947331169125486,0.3516669095424722,-7.041959227997456;-1.3420237621463005,-3.2834295937573676,-10.645481771079666;-23.309600830078125,17.705230712890625,-5.847499847412109;10.647973189467429,10.94268959113814,3.250079382801461;-4.901164736657533,4.916729893659456,-10.437398263065269;-0.6565257957575061,-5.52987285920553,-16.39140416785506;
31.72011594122228,-60.7576476578875,-2.956898089725591;30.628660507301205,0.12411002973425145,-13.141885607093867;-8.81031812015313,8.06240639858044,-11.125744694053362;11.019727704641099,-6.727144531188565,18.851469657603147;3.7052993947664343,3.315879434960281,-5.780064224650619;-2.9380571882442554,0.823770470447555,-11.347990771321133;-1.854823374249026,2.9841382542281814,-1.459985571865058;-0.6585251180849259,7.347771132036409,-7.607769408565689;-1.3055614369776738,0.5006111395881508,-8.407717430357796;-5.452461099666958,0.08196635562317595,-4.646402873895635;-5.096013984871447,17.596592174995408,-9.367590750157568;-3.984275375934086,0.3504204338028503,-6.572012658254643;-1.3436209152130323,-3.283127734685932,-10.666811982175876;-23.309600830078125,17.705230712890625,-5.847499847412109;10.69972038189171,10.834469754250666,4.269905515945798;-4.8714088322072895,4.911412356037731,-9.767286576338627;-0.6418928901622162,-5.534124322184542,-16.058756788373934;
31.733772544882754,-60.75853532155678,-2.993483287818222;30.687803781686306,0.6089028003159136,-12.894683608441012;-8.813319052002157,8.06300236725243,-11.080847376350464;11.008399425427296,-6.731008135701924,18.70787330829213;3.7098968325865065,3.2266212600852393,-6.081602536031763;-2.9376933492194355,0.8236868217255274,-11.55539719557416;-1.85878636607079,2.9842314811355197,-1.2720297008380683;-0.6595996099851328,7.287737491701125,-7.917966298564153;-1.304584394552292,0.5004707506864566,-7.932217439512669;-5.4382044559587,0.08081426357257743,-4.499395007839464;-5.103232866764325,17.504836924829323,-9.278798309974745;-3.9833869770075987,0.35032262010272125,-6.530085460636567;-1.347876945504733,-3.282334321873928,-10.723988348011224;-23.309600830078125,17.705230712890625,-5.847499847412109;10.75541167534598,11.004829243084455,5.531504493859877;-4.854393001604806,4.908536533203737,-9.38429152249467;-0.6358442760333519,-5.535874844164661,-15.92116256310506;
31.690907837100994,-60.75600089296719,-2.879082321316808;30.723662093478783,0.9104265853060403,-12.740752064963202;-8.833783108871605,8.066989959662196,-10.776759478929282;10.962825578355849,-6.746459820965493,18.13128917280048;3.6996693776950336,3.2729641548029367,-5.674111309695435;-2.9375978010464876,0.8236720491220899,-11.589757343361567;-1.8615542506428837,2.9842872223064862,-1.142084610543554;-0.6583018324151153,7.368788789318513,-7.485233822288684;-1.304603398920907,0.5004754622848816,-7.946706706489007;-5.447436021188901,0.08154317746951284,-4.594681901772629;-5.096880970599336,17.662843825606586,-8.721570084517232;-3.9852231841080528,0.3505653925516782,-6.617431753274644;-1.3527881650467308,-3.281375372574541,-10.788980478275455;-23.309600830078125,17.705230712890625,-5.847499847412109;10.71237262440435,11.171599229938934,4.72725375041989;-4.862092613131042,4.909860063529636,-9.559092259192145;-0.6396338732181261,-5.5347523678340185,-16.007852167460044;
31.691217726744526,-60.75612997754845,-2.8800673084827633;30.661495288422817,0.3917959377831657,-13.005449935092399;-8.869663970156232,8.07373160661047,-10.243499659372972;10.873113518949525,-6.775374401114306,17.002182779333715;3.7180636466047257,3.263552738367729,-6.279028546169631;-2.9369973625663612,0.8235405847739907,-11.906369728770231;-1.8633392973948375,2.984318023017458,-1.0589678374726628;-0.6517732515197104,7.549356080307636,-7.1811646617293485;-1.3053282322156992,0.500579243330893,-8.29721800023843;-5.469042959924953,0.08331527106154396,-4.816991502293941;-5.090753528251828,17.724590611319176,-8.928977071188784;-3.9887344922568473,0.35100072003686766,-6.774786419650773;-1.3584319298062597,-3.2802812391468805,-10.864352174272657;-23.309600830078125,17.705230712890625,-5.847499847412109;10.687835192025114,10.39785051649923,3.7809991228105906;-4.8879770896631936,4.914409897131405,-10.143103819895169;-0.642063749828225,-5.534085720915344,-16.06263822285381;
31.659090714190555,-60.75442503543719,-2.7944254107946414;30.609480190609023,-0.029805880668390294,-13.220273611331173;-8.85100737479851,8.070262031764821,-10.521320434648713;10.808520299572598,-6.7949399252464335,16.193533244200154;3.6922862621389854,3.1692802223364196,-5.617334096552275;-2.9369903337529752,0.8235477741174958,-11.886043079774577;-1.8675516993920291,2.984384475842558,-0.8594349603346707;-0.6585905094186993,7.441968056743829,-6.816608016637909;-1.3055967408271092,0.50061949747103,-8.427869907939915;-5.470126474135141,0.08339715964136118,-4.828428348718813;-5.0968136717244,17.643560960980665,-8.888635779625773;-3.9893223787607734,0.3511035951294829,-6.803477420653568;-1.3616846104131899,-3.279642991833345,-10.908115096691272;-23.309600830078125,17.705230712890625,-5.847499847412109;10.720330305731531,10.66388592697274,4.603822334427103;-4.880246155662183,4.91307377631976,-9.969915822139628;-0.6382592610247998,-5.5351926838255805,-15.975815808041123;
31.65584597825708,-60.75431779645153,-2.785909082792873;30.609052838805024,-0.033309680304055345,-13.222115606243674;-8.823275393350972,8.06494257532502,-10.933324724186765;10.777213967525412,-6.804006457918999,15.802924324625188;3.705643460582089,3.294353177695789,-5.828221712175076;-2.93683790980298,0.8235061021369822,-11.983218654614094;-1.8694822097187394,2.98440924206586,-0.7679754168953217;-0.6449611222707866,7.694831871961426,-7.225024831697114;-1.3063673903915638,0.5007385721133664,-8.807925869699538;-5.484035038532241,0.08458109952950527,-4.97131314167455;-5.087359404712763,17.75909581437615,-9.035965350468354;-3.9918011180436417,0.3514346433619342,-6.918683850135615;-1.370605544764426,-3.27789735841262,-11.027154099919379;-23.309600830078125,17.705230712890625,-5.847499847412109;10.70906907743511,10.941752474061932,4.5236303901841755;-4.886220015893527,4.914165682494648,-10.104809796216104;-0.6349213031516444,-5.536080267448776,-15.899581272759718;
31.72200180637225,-60.75831677946522,-2.96275323689075;30.614094641362666,0.007003929494148409,-13.201577038585455;-8.81914179956891,8.064132438633926,-10.994820603776361;10.697594452834911,-6.826160785379606,14.813063898416235;3.7337446392993736,3.2745306305702178,-6.762057771144585;-2.9361504850026807,0.8233612283665975,-12.322674008738064;-1.8684069902665645,2.984391974436493,-0.8205845853949523;-0.6408162189117065,7.732896896950494,-7.679530246573656;-1.307502979086572,0.5009151072417943,-9.344225014130135;-5.495617436732015,0.08560247417572492,-5.091017336726426;-5.084169843520818,17.793165465078374,-9.125286489435059;-4.00180850657959,0.3527059789241427,-7.371093401675228;-1.392475409559029,-3.2735745274972246,-11.319561121096154;-23.309600830078125,17.705230712890625,-5.847499847412109;10.662991417824975,10.765824412496595,3.4612506347958387;-4.8969715999281185,4.916137209959046,-10.348213101325948;-0.6285016796513851,-5.537931025737945,-15.753749021098848;
31.753544417733643,-60.76024268240377,-3.047136802831762;30.55399668060883,-0.46675228357370124,-13.442604972225519;-8.842717203225334,8.068701609273731,-10.643646012523938;10.724357496312644,-6.8189110054910085,15.145166462473913;3.7103684047683827,3.2247379927477393,-6.099807971553316;-2.9361994876968587,0.8233754539156171,-12.289164480560332;-1.8690892396922512,2.98440143626217,-0.7861328025746559;-0.6438326760201334,7.691404786806137,-7.454136504817117;-1.307451401935214,0.5009072292136709,-9.320666514129098;-5.489767616401902,0.08508158152869011,-5.030700819186448;-5.085870248842777,17.706491698797088,-9.639476978164708;-4.0004969526453245,0.3525417423127002,-7.312141587836759;-1.3931147166993112,-3.27345369848236,-11.328163407635857;-23.309600830078125,17.705230712890625,-5.847499847412109;10.616311953834344,10.591201393434941,2.389749445246289;-4.9238204735492115,4.9212132585089226,-10.954984166022667;-0.6299462130557738,-5.537539793108523,-15.78642265183925;
31.758791624285454,-60.76053938732211,-3.061105932139222;30.522573458165645,-0.7087918989882225,-13.565572752946371;-8.835463466026981,8.067309664019415,-10.751999069443402;10.726320385346822,-6.818354096437765,15.169548377884137;3.707895070767033,3.3863083350047645,-5.741353089915506;-2.936006250076648,0.8233317502401836,-12.391273034929139;-1.867642732428406,2.984381165213393,-0.8563423251830926;-0.6378641885186246,7.818295542165379,-7.498729274287795;-1.3076056020050093,0.5009339486862135,-9.399975825156673;-5.491576335158463,0.085242163648104,-5.048936932725172;-5.082162526620381,17.74024511343889,-9.793328042279008;-3.993271646484515,0.35162486140384774,-6.985197993970107;-1.3797685682590508,-3.276099398363736,-11.14914159158516;-23.309600830078125,17.705230712890625,-5.847499847412109;10.633467737442226,10.866257625489844,2.9008604131421887;-4.917107928772054,4.919900439358236,-10.802480922638635;-0.6202961598026487,-5.540231124813069,-15.567937136130865;
31.70460492343206,-60.7572290028305,-2.916205898784826;30.71762697500464,0.8603715934579235,-12.766288517914994;-8.898983641684604,8.078951608952302,-9.809010536987177;10.75458803402305,-6.810488277159268,15.52119920275621;3.734021102294845,3.4626187224602663,-6.445932224403366;-2.935753329524707,0.823274436023051,-12.52436040998916;-1.86765786531042,2.9843842637783426,-0.8550377271248131;-0.6304468593866606,7.9356208039895355,-7.890174993405959;-1.3073952069149337,0.5008978420699842,-9.294764236291073;-5.474564141664546,0.08377236961687717,-4.874128514394963;-5.076013519838074,17.816293761937985,-9.874228856283526;-3.989869333182179,0.35118522701610494,-6.828535706387061;-1.3749006214734527,-3.277095535725039,-11.084220907761692;-23.309600830078125,17.705230712890625,-5.847499847412109;10.67938977686444,10.910547189560356,3.885723489353807;-4.899242536340073,4.916514546446201,-10.398069776790328;-0.6102658995287249,-5.543012545537157,-15.34045723573469;
31.53060220931256,-60.74742880112637,-2.4515109147712213;30.729028686580776,0.9561012113479508,-12.717397522348158;-8.923945312142791,8.083256080878002,-9.438792158496739;10.815252018047126,-6.79294057248349,16.27770034813844;3.7340360931789793,3.308946062176659,-6.711874285900892;-2.9365106314131486,0.8234458120137534,-12.129915798050162;-1.8698756322594778,2.9844189300832307,-0.7501931461389688;-0.6341611126796399,7.775012641564237,-8.54511688755632;-1.3066905748037299,0.5007903603774667,-8.971240829720418;-5.452590927555513,0.08194002267880196,-4.647207818339769;-5.0857757721447525,17.720188360194637,-9.534219429176549;-3.9864185016300517,0.35074662164107356,-6.671719307808381;-1.3767505261007007,-3.276753822621585,-11.108823262570375;-23.309600830078125,17.705230712890625,-5.847499847412109;10.685464689716598,10.675122351354098,3.8814241660215476;-4.911101564238179,4.918691116080363,-10.66469266455223;-0.6125833114989834,-5.542419740158838,-15.392587070280614;
31.6847537550994,-60.75567249294325,-2.862681368768156;30.690929141617072,0.6347445687137032,-12.88149521129418;-8.829957070603184,8.066253688170125,-10.833571523752374;10.784273972655386,-6.802067662594446,15.891029145672034;3.7331681587939016,3.549001330174084,-6.269866315908858;-2.937351292694025,0.8236173298554678,-11.722266034118057;-1.8720768667778307,2.9844510349864746,-0.643976754506479;-0.6263446632044023,7.942253693120531,-8.59038321125589;-1.3057799516959836,0.5006451670202783,-8.5147474534086;-5.432318087490923,0.08033219730787727,-4.438640375155907;-5.092842048667202,17.612650029621406,-9.602321717300628;-3.9861904143774227,0.35068737896181346,-6.66015976106824;-1.3770299884944872,-3.276709747825611,-11.112501114883178;-23.309600830078125,17.705230712890625,-5.847499847412109;10.70099761543324,11.109333981835888,4.452814422881528;-4.919783629763754,4.920301542321833,-10.859733918646668;-0.6123866936317766,-5.542404780262606,-15.388659997329373;
31.841421655486904,-60.765473476594885,-3.281447229765879;30.67973650845834,0.5420393917415769,-12.92881678530598;-8.853546775563636,8.070751220115078,-10.482922934341472;10.77378522330048,-6.805155207876402,15.760312584832597;3.7215784242246133,3.4931509247147314,-5.995123231798713;-2.936759417852764,0.8234986049452371,-12.010217099694303;-1.8688623819436065,2.9844145144580203,-0.7952996037274964;-0.6316403187554913,7.91877183171244,-7.809713394300086;-1.3063551304938044,0.5007342853179276,-8.800507517557737;-5.447730993009022,0.0815653107963416,-4.597599201967748;-5.094276362853704,17.58994459241613,-9.617168836916996;-3.9896717206574026,0.35107079024300875,-6.816207112927742;-1.3839668524869313,-3.2753157446303334,-11.204932557594198;-23.309600830078125,17.705230712890625,-5.847499847412109;10.673606123705936,11.286868835200137,3.985116814483156;-4.913384534959803,4.919049342691181,-10.715390847680755;-0.603935343016041,-5.544767935602362,-15.19693932561111;
31.732824800473864,-60.75835350798177,-2.9907898339500996;30.659212207694864,0.3728350735423547,-13.015142273351056;-8.842086873748677,8.068587669237663,-10.65332233291937;10.79166084750805,-6.799978581172472,15.983273045529407;3.7068877114393515,3.2210427956213508,-5.995006882654362;-2.936193550176988,0.8233829385197448,-12.284188103501522;-1.8689647606690367,2.9844188231292708,-0.7900339279174169;-0.6361743777200562,7.821141751323506,-7.79082479068717;-1.307153196379557,0.5008602564126531,-9.18865268955821;-5.461573462799901,0.08270408118396128,-4.740059922138535;-5.1035405228993405,17.41484493261171,-9.978325692688115;-3.9964138126615545,0.3518763145715019,-7.1197817534417;-1.4005207006621754,-3.27203051572199,-11.426620836942039;-23.309600830078125,17.705230712890625,-5.847499847412109;10.639181710284674,10.951591539581118,3.0717208667493754;-4.932721505694473,4.9227672423046185,-11.151026179859738;-0.6061015636455753,-5.544138831911036,-15.246316633785693;
31.703819456859236,-60.756557995515955,-2.913216195622324;30.718211821673933,0.8640049883891887,-12.764457803174915;-8.823629353110347,8.065019768682946,-10.928298830192904;10.826417457070963,-6.789722247519876,16.417346322474668;3.7091152951876487,3.1366498763838258,-6.212593491260479;-2.9356575549405854,0.8232621606474458,-12.562099482593268;-1.8703906731127327,2.984437939896201,-0.723858915244552;-0.6427240842957709,7.646913925112615,-8.033452274065048;-1.3070044317753151,0.5008354877813244,-9.114112946367644;-5.466300490616771,0.08310171743645056,-4.7889058550304195;-5.097634794536528,17.516661220048142,-9.833657467761007;-3.9942407678553944,0.3515993660681864,-7.021158998947637;-1.41007649414782,-3.270089865956001,-11.55419735638537;-23.309600830078125,17.705230712890625,-5.847499847412109;10.676084684565478,10.715780193036974,3.709982357020647;-4.912785112448551,4.918900622828129,-10.70069364283407;-0.5945185899315603,-5.547282950288226,-14.984186615066987;
31.798870210635464,-60.76252926380271,-3.1674002485488595;30.754480733401095,1.1745211729936198,-12.605740487275094;-8.859218712845495,8.071812544337707,-10.398271656955693;10.862055671643343,-6.778869143070285,16.8635860247721;3.7014174458462956,3.166730053990949,-5.914084533257321;-2.9355140323788524,0.8232284236671209,-12.637831817383088;-1.874207934469067,2.984478661226294,-0.543589940929337;-0.6384400684515326,7.736399344682799,-8.080408879566107;-1.3062350394354385,0.5007127658569075,-8.733357319399342;-5.457437908215868,0.08236066992925495,-4.697546129075045;-5.078850074076558,17.80936590204224,-9.606836427438303;-3.9843294697845844,0.3504258452274255,-6.574632157412129;-1.3928685911660248,-3.273540834148171,-11.323798326753664;-23.309600830078125,17.705230712890625,-5.847499847412109;10.748257629451832,11.27922858093125,5.541936146321173;-4.871845932721245,4.911478536161434,-9.776990494825256;-0.5755938018178162,-5.552328461767746,-14.556128080221157;
31.73049395921056,-60.758371721586705,-2.984749917578931;30.73657692518782,1.0204327190808637,-12.684526425681213;-8.848234770966224,8.069749154181007,-10.562170811808901;10.869810976325962,-6.776449169361387,16.96074495261221;3.6880228510108695,3.1280371059618766,-5.552564428396378;-2.9357366728738974,0.8232718099145204,-12.537514936318043;-1.878280504895164,2.9845072943633246,-0.3514517044195742;-0.6327621291387453,7.896686301271955,-7.792776398088515;-1.3055045901223694,0.5006082720041668,-8.3955378989018;-5.436195848236625,0.08064084367568025,-4.478533552719336;-5.073877237792952,17.853951353430887,-9.81275404937007;-3.9846759199563295,0.3504846723158703,-6.590074619404525;-1.3827850177393712,-3.2755594165352724,-11.189344361852473;-23.309600830078125,17.705230712890625,-5.847499847412109;10.73706435429125,11.425774739824194,5.394710289798105;-4.885365861190255,4.91388942886779,-10.082787541409385;-0.5816596179292678,-5.550693052498086,-14.693217622005204;
31.483122469189464,-60.74497565918468,-2.324814753771385;30.638361019191944,0.2027965775574243,-13.101808304704821;-8.809802025211194,8.062296902515584,-11.133333041120256;10.761700456131782,-6.808546417953559,15.609844810964667;3.6911698270324615,3.0494942915989682,-5.789544097796982;-2.9352048969844136,0.8231539616766163,-12.800684220330538;-1.8781110691141851,2.9845022845221947,-0.35903387627593375;-0.6285921167485725,7.891719997381375,-8.600034367584431;-1.3058817660073392,0.5006637015730696,-8.574016418285236;-5.436415200248304,0.08065070449356837,-4.480792664015381;-5.065906899007083,17.91562668369387,-10.228474051659859;-3.987892868135843,0.3508964441203976,-6.737954754155091;-1.3882995623501266,-3.274461239021113,-11.263205870989989;-23.309600830078125,17.705230712890625,-5.847499847412109;10.744558907082856,11.664706222068865,5.696444061159245;-4.864686031118832,4.910324131984476,-9.61791281981469;-0.5665031539312291,-5.55459868109394,-14.351463746299732;
31.497751933424073,-60.745848111347954,-2.3640671610826365;30.606165251523052,-0.05636814419818581,-13.233833933103455;-8.775496434787973,8.055306662976607,-11.644199479092407;10.720640879981236,-6.8199947757335115,15.099147173869284;3.7147150669693145,2.857933477240538,-6.8767527701436215;-2.934548405076304,0.8230064423928874,-13.123943555838629;-1.8790589226364314,2.984503064521547,-0.31502519613744795;-0.6346426032423722,7.704220436212643,-9.048531454157214;-1.3069492700003997,0.5008306736415876,-9.094484161091252;-5.457331110631276,0.08232866192039723,-4.696241095293303;-5.068986767691384,17.850151666472243,-10.412283559275556;-3.991521159555606,0.35136601276930624,-6.903132713263311;-1.4070785781296995,-3.2706401225933357,-11.51441994978973;-23.309600830078125,17.705230712890625,-5.847499847412109;10.672188886445232,11.430885190632758,4.039789724878524;-4.87630022550647,4.912366922345007,-9.879679919010632;-0.5595468911059385,-5.556373664183697,-14.193465593774256;
31.315767341221633,-60.73809371021422,-1.879904141889428;30.729463713718232,0.9601461594296552,-12.71532154593627;-8.812968405214022,8.062930497614952,-11.085722684730536;10.799754826141898,-6.797498231751685,16.08410520453451;3.720101922885888,2.854832973226945,-7.054696026117353;-2.9356593421788584,0.8232521884477169,-12.57449080781456;-1.8845126639701848,2.984516068171295,-0.05860906923065379;-0.6342977894144336,7.762955703021281,-8.619904698877995;-1.3062989792305923,0.500730314792778,-8.78287422104276;-5.446121653122045,0.0814087862004994,-4.580764057313233;-5.067540116461101,17.901154095825213,-10.1599357374288;-3.9900448995357065,0.3512233489549167,-6.838944167093196;-1.4162290947366956,-3.2687501865975332,-11.636945090483518;-23.309600830078125,17.705230712890625,-5.847499847412109;10.640610392167279,11.354258422158953,3.3336308699909143;-4.877276718715775,4.912579101528056,-9.902614603678684;-0.5472565862672774,-5.559470291793825,-13.917711173835395;
31.17119320193375,-60.73326569548787,-1.4960461248226853;30.84777861439786,2.0056062077325336,-12.180195582218403;-8.785551064907771,8.057375068569582,-11.494857889841489;10.864835560705806,-6.777828033524747,16.898232473111708;3.714218576314441,2.843611052552694,-6.885723868235066;-2.936193527753328,0.8233709261200967,-12.3000499132957;-1.886017577895204,2.984512999756757,0.014114708945063725;-0.6384378035056336,7.73639931652143,-8.084812180844791;-1.3066544595376433,0.5007794581674248,-8.935117535672608;-5.456486854162041,0.08224881948005719,-4.687553822672252;-5.081234943531615,17.746753547081884,-9.8437696591632;-3.991051527926143,0.35136699369489044,-6.885035219721583;-1.42347151043775,-3.2672728994170557,-11.734368878774573;-23.309600830078125,17.705230712890625,-5.847499847412109;10.651224884598706,11.012087115488438,3.354521332529133;-4.870244472787765,4.911395905828017,-9.746059677430907;-0.5362795400925102,-5.562161557896864,-13.670817187330435;
31.501735797796158,-60.74638306938425,-2.375182801861442;30.712480239854063,0.8172329699812693,-12.788342890876564;-8.799526261583688,8.060232085747629,-11.286336959082073;10.87668411267302,-6.774154690714852,17.046835953167243;3.7100439725801615,2.830576226757176,-6.7747740592772425;-2.9354767542512143,0.8232140005820254,-12.658641949582616;-1.881770261647883,2.984505591186488,-0.18736110384360405;-0.6362844341796359,7.757121501265591,-8.30840954865971;-1.306992418309906,0.5008346457553623,-9.103467638164059;-5.466640964888937,0.08309298359160089,-4.792168814462025;-5.070749554847076,17.87119634107339,-10.036155621770831;-3.991414134375881,0.35141969974330717,-6.9017599570123345;-1.4263762095125299,-3.26660730993141,-11.772987862633155;-23.309600830078125,17.705230712890625,-5.847499847412109;10.658057259594042,11.075624326722766,3.5335316577052094;-4.8767161760429225,4.912527648748597,-9.891524155685932;-0.5367604622178975,-5.562030685123496,-13.681620605391657;
31.757301330677535,-60.760616174437416,-3.057369879879813;30.637908828316608,0.1989189585685427,-13.103835813499483;-8.820709246485078,8.064437610897297,-10.971393509317764;10.861713955699395,-6.778785227260388,16.859125852739865;3.704697656155646,2.549515532330661,-7.095837030996009;-2.9347629181462023,0.8230478640929477,-13.029131260441087;-1.8822758738790244,2.98450760288519,-0.16311202645199607;-0.6449043744760405,7.4607372805089724,-9.192029633976329;-1.3068494087795461,0.5008113967979538,-9.033124878610726;-5.46163285095292,0.08267612463430588,-4.740606486062498;-5.102077883774016,17.373317749134678,-10.487672514921654;-3.9934446567780726,0.35166523630810476,-6.994902382996303;-1.4299341183949306,-3.265935547670692,-11.82015895349203;-23.309600830078125,17.705230712890625,-5.847499847412109;10.741137131056874,10.758655862351329,5.090311862287237;-4.890100737231984,4.9148995270547875,-10.192658419437846;-0.5548342520740173,-5.5575462145460985,-14.088519674924607;
31.850568682532895,-60.7665360939799,-3.306719893086756;30.586589703003362,-0.2116125460143472,-13.312844972991254;-8.845464575904186,8.069215761755558,-10.603249762656716;10.88931246401686,-6.77021270173962,17.205373056694256;3.7297921475309415,2.6968081089842237,-7.641694159315133;-2.9341899879082463,0.8229098869654371,-13.330343839499083;-1.8858369560001695,2.984515926616467,0.004866050187242621;-0.6361156238720918,7.587718644496713,-9.758833537282223;-1.306684504253929,0.5007823904718536,-8.9452607189965;-5.457256710034937,0.08231720535012782,-4.6954799971592776;-5.073393899314853,17.708229173524362,-11.069552249511142;-3.9980929097877596,0.3522188729502511,-7.202854925994129;-1.4436915963245605,-3.263033759790818,-12.004491629967017;-23.309600830078125,17.705230712890625,-5.847499847412109;10.655701272276726,10.784807334083709,3.3196257634493183;-4.9392409938884985,4.924238694393662,-11.30331716946083;-0.5683865465196386,-5.554092365034866,-14.393648180884004;
31.790142113718126,-60.7623787657528,-3.1447513464039254;30.561300463788847,-0.4101385190379778,-13.413813074369921;-8.769100794960957,8.053961711292425,-11.73992190497852;10.832576176626915,-6.7877104349974555,16.49429618503673;3.7330762019107313,3.0408625732071473,-7.1461490881306045;-2.9343724411446575,0.8229644386244098,-13.214919837267153;-1.8872873526588072,2.9845199239324463,0.0736643852521901;-0.6150353122628259,8.049913381804384,-9.77823923862424;-1.307007925140296,0.500832442906565,-9.099706386098656;-5.466685905270092,0.08311158729746185,-4.79291816145283;-5.040361092357824,18.125412762025512,-11.450483062711367;-3.9956649029184255,0.3518761441005249,-7.090254276994585;-1.439856583163254,-3.2638225141839707,-11.952762259301402;-23.309600830078125,17.705230712890625,-5.847499847412109;10.619694654248711,10.825252276640018,2.591147208228481;-4.9581866062542606,4.928063906549461,-11.731055761442825;-0.5660995997416998,-5.55470411784384,-14.341675436765833;
31.700641393375758,-60.75659926161305,-2.9051360147794902;30.522426614406093,-0.7104464386958531,-13.566423170663409;-8.7574716810008,8.051499137769405,-11.913386259138283;10.754614794525505,-6.810545376884588,15.521573000467303;3.7474476866450828,3.0372328911213424,-7.613256865062038;-2.933848667076475,0.8228416180977965,-13.480959512704018;-1.8855334287768308,2.9845266122611136,-0.007565009681037793;-0.6212822211807714,7.916613684525675,-9.744538313014749;-1.3068240736617982,0.5007995984323053,-9.001173720663282;-5.471373357969183,0.08351485100761522,-4.841312181380662;-5.053863520724065,17.941366360841517,-11.411183697179156;-3.99230902129874,0.3514204429400855,-6.936031248182136;-1.4393167271557996,-3.2639650082855427,-11.945744850693488;-23.309600830078125,17.705230712890625,-5.847499847412109;10.622981863142615,10.681950652822284,2.5808070915160486;-4.971042260213017,4.930720430634904,-12.020673694452178;-0.5602881978959069,-5.556200293973946,-14.211085310692447;
31.659542422985226,-60.75404024669147,-2.7951028833632865;30.661703328993475,0.3940799615897985,-13.004248649094995;-8.790447155952398,8.058385829853963,-11.421935910459911;10.824874828349321,-6.790151541157958,16.39804101167673;3.753258276076604,3.0645906405861565,-7.752057979656568;-2.934379190572741,0.8229691832456736,-13.209887056914937;-1.8852608015540642,2.9845322857991055,-0.020730583372043476;-0.6212793135319185,7.935556571966751,-9.582886753790794;-1.3070170410597302,0.5008389834173412,-9.123067777852107;-5.474212236909965,0.08376255789666703,-4.870608103922055;-5.050320041192104,18.00480578729117,-11.296618374345902;-3.9945270447004213,0.3516540724666948,-7.0341089895332;-1.4534871333770893,-3.2609752932152043,-12.135341347071826;-23.309600830078125,17.705230712890625,-5.847499847412109;10.60599009759802,10.515350241221133,2.135960326361766;-4.99728848987997,4.936429251195134,-12.615960405611446;-0.5646893988756909,-5.555037515951275,-14.310749713025052;
31.623742473424787,-60.751871832066804,-2.699233730013156;30.648861250469327,0.28790368927751775,-13.058455205323195;-8.787089194680595,8.057701047218995,-11.471741655081662;10.870416451386738,-6.77622919883319,16.968315860296443;3.764445553583807,2.8825018825376443,-8.4286968095903;-2.934641846035667,0.8230224091720648,-13.09576172910098;-1.886655414233221,2.984536359753813,0.04537273101142336;-0.6243726534301761,7.867915258541358,-9.581147233997903;-1.3073563287362655,0.5008903077047857,-9.277958389909076;-5.477857108474449,0.08408033130729714,-4.908300669634009;-5.056748772013779,17.898431805225943,-11.43070021413325;-3.9956765527833227,0.35177240373403706,-7.086163936623942;-1.4670020998545614,-3.2580576872263625,-12.31704612836973;-23.309600830078125,17.705230712890625,-5.847499847412109;10.633317695900438,10.454174841758038,2.6740822631363175;-5.00098002004211,4.937228837289925,-12.69949118960605;-0.5631230004031674,-5.55551289636187,-14.274688878152663;
31.743890447113294,-60.75896183327123,-3.0201096852210982;30.65922384517784,0.37348922472814117,-13.014811549227868;-8.778283872944058,8.055875625631964,-11.603016927680827;10.906114374858625,-6.765004535694431,17.416689861410802;3.7654321166314815,2.935738365697897,-8.367410962903797;-2.934826140222003,0.8230711307820516,-12.989361093465167;-1.8889007117570054,2.984534288145557,0.15034682332663252;-0.6229045237789897,7.848203197495669,-10.016700769536806;-1.307394965469635,0.5008961731103884,-9.295976309685756;-5.479485528678342,0.08421767306296268,-4.924561992931501;-5.075338821935805,17.646919517165422,-11.348024252472644;-3.99562578568759,0.3517489867325517,-7.0816297299075;-1.4772130058660198,-3.2558320447728257,-12.453571277672559;-23.309600830078125,17.705230712890625,-5.847499847412109;10.652903320481252,10.552084825019678,3.1367200562961886;-5.010401403352521,4.939365014428486,-12.9136125708252;-0.5604163482830741,-5.556164270918603,-14.213466567335846;
31.763807301003563,-60.76015125467676,-3.0733785823457858;30.751182935330576,1.1460520268651848,-12.62030586096755;-8.825837996311542,8.065450738743355,-10.894849941977544;10.955370691793384,-6.749021421807044,18.037189566661308;3.7509270802847556,2.7760268142520856,-8.18118696096685;-2.935441244646498,0.823211070508483,-12.677447951815337;-1.8894948102301505,2.984531816201193,0.17950898736890242;-0.6270646901886398,7.76109766571167,-9.980625006959572;-1.3069661175349168,0.5008229385759969,-9.074857282505462;-5.476144395726729,0.08392748921697404,-4.890018235330768;-5.107942524573038,17.25117716917167,-10.801822824033088;-3.996977860927275,0.35192893553601423,-7.144834210830526;-1.4844454293675278,-3.2542285253228105,-12.550980193924744;-23.309600830078125,17.705230712890625,-5.847499847412109;10.68093010925152,9.704466780014977,3.2841516879253714;-4.997019254013833,4.9363264946598315,-12.609015580765815;-0.5368726811416729,-5.562027533682203,-13.683863517534117;
31.543772381940546,-60.747652903288916,-2.48594729961557;30.706796532494344,0.7681470767473746,-12.813409704260003;-8.747984954390505,8.04945797993685,-12.055170386387951;10.917174829978554,-6.76144443610692,17.555768041519272;3.7661688440164696,2.812494632784859,-8.606480753299738;-2.935518194818313,0.823234672265894,-12.62250560399158;-1.8870704058100347,2.9845338113992907,0.06274892947494504;-0.6186662233077634,7.88201487874975,-10.517931960616538;-1.3067848801792405,0.5007987788868778,-9.000556578940362;-5.4742298137386864,0.08376242365235345,-4.870619531221636;-5.108976617353725,17.26732604125779,-10.553008355048968;-3.993378386011468,0.351505294120624,-6.983090137029519;-1.470577448757738,-3.257292870939743,-12.364643256415327;-23.309600830078125,17.705230712890625,-5.847499847412109;10.710589356200938,9.641155146326321,3.8722706097755326;-5.0025262415756355,4.937599634251887,-12.734929120255575;-0.5305525853618427,-5.563543355752878,-13.54258054893738;
31.515556994082196,-60.746464266834955,-2.411080884949558;30.819299825698405,1.7464146522991673,-12.313008140732078;-8.784385496113835,8.057145072863811,-11.511980672612077;10.983679188407738,-6.739427466723661,18.39486967686392;3.7586565185690457,2.714911726807073,-8.536227999178584;-2.9362092084353475,0.8233871984397967,-12.269932561475962;-1.8894071125155782,2.984522981431721,0.17490530315266195;-0.6122146620840825,7.975175079811992,-10.930442770904925;-1.3054754651351945,0.5006007496956645,-8.369023922238487;-5.454740918422663,0.08212701773970538,-4.670053642394387;-5.0995511418734365,17.431547524033398,-10.307654657770593;-3.9912748804969183,0.35128723139088336,-6.8899867533930195;-1.4573942106980533,-3.260091506029699,-12.188244598171517;-23.309600830078125,17.705230712890625,-5.847499847412109;10.701265012728774,9.863614860333618,3.785951133565538;-5.031246935726801,4.944334646512118,-13.390134220401375;-0.5372812286028388,-5.561915015439497,-13.693188608542279;
31.838517836901183,-60.76561833000215,-3.2741670889858767;30.792605325561347,1.5083444121321543,-12.434956082071317;-8.828691569743524,8.066009613861233,-10.852442888253425;10.999093522290465,-6.734145444581486,18.589901898249074;3.7624898944376355,3.108332945536678,-7.971798912340747;-2.9366996077173617,0.8234819069151694,-12.044509694754677;-1.8850005539624501,2.9845213441516076,-0.032049692685137465;-0.6046221805426044,8.181539662037709,-10.604821647294873;-1.3044261003302353,0.5004479468990471,-7.8470011555208155;-5.443954841496052,0.08124248815199156,-4.55824396145629;-5.092366006947022,17.51405373664604,-10.463353624122817;-3.9923110880913013,0.351457757224814,-6.938653949068808;-1.4441910592480087,-3.262906475330377,-12.011191452639356;-23.309600830078125,17.705230712890625,-5.847499847412109;10.710765756523879,9.921064325952909,4.012120364893766;-5.06193267770328,4.95192436406918,-14.092805647714709;-0.539312088638784,-5.561400889303362,-13.738800584900321;
31.944063444388988,-60.77325076320391,-3.5573114836147415;30.682125257799825,0.5616935181308405,-12.918794377432683;-8.818116889388733,8.063939109544568,-11.00978285291716;10.907975775119985,-6.7642809662831205,17.440018533230052;3.731801573541763,3.0486717741098683,-7.091560874136441;-2.937000763388265,0.8235443880878677,-11.892849588896226;-1.8824385391957912,2.9845108737485404,-0.15412766970137692;-0.6127768041216839,8.076977738270225,-9.975414388300399;-1.3039031282900841,0.5003767096100332,-7.59015115902635;-5.434100031156833,0.08045895523392066,-4.456737305048742;-5.115156662665666,17.24918239772911,-9.985997310761366;-3.9902311722011614,0.3512492321649443,-6.8463801219243425;-1.4279832664765788,-3.2663215457515027,-11.794592940497823;-23.309600830078125,17.705230712890625,-5.847499847412109;10.734911739955942,9.981987758775823,4.54666233008721;-5.053874954821133,4.949963699874845,-13.909804669903263;-0.529970367161908,-5.563634923306167,-13.529491729415927;
32.00518872343895,-60.778068697394126,-3.7216309082239967;30.6067011484924,-0.05191433111803612,-13.231547982230953;-8.756365657377781,8.05124076948431,-11.930464244121978;10.809091328183309,-6.7947185722540455,16.20069917827327;3.7411608780220926,3.3240593397420364,-6.913561117828918;-2.936778155975013,0.8234950184874015,-12.008793665897429;-1.8828385528981277,2.9845065683502825,-0.1388288834271103;-0.5979921761542213,8.410543470401668,-9.90755943884659;-1.3036671911800501,0.5003481132250187,-7.484580554994546;-5.427271259325231,0.07992509367935546,-4.3863443171323215;-5.095667945989273,17.52550313792141,-9.990787592416662;-3.9965475141211813,0.35206644183834157,-7.136071085365055;-1.433924693751831,-3.265017817970513,-11.873994571620855;-23.309600830078125,17.705230712890625,-5.847499847412109;10.737705884342969,10.07682897255944,4.652602984035073;-5.053995588500757,4.950031809724481,-13.913317405316656;-0.5217248377329317,-5.565667086929767,-13.34282124455627;
