35.789904286919075,-62.12311645614681,-15.062485309449674;30.099393958546283,0.6027574293413779,-12.739205380655175;-7.930638385921308,7.667194416238832,-25.317855483304633;9.5813910592383,-6.815328359456358,0.8978892203053409;4.091917808517736,1.235783155492125,-23.394104122855033;-2.903646051960813,0.8033964848231383,-32.61181591201284;-1.750787847851246,2.9374118096779376,-7.2833612786824125;-0.5203919723646295,8.266134676519945,-26.453664803020573;-1.3416980042862614,0.5200742478781518,-29.653456920322352;-5.9275902043672515,0.3241485373348322,-10.279270569805345;-5.194034746416624,13.9764847169488,-26.894872251499507;-4.435054276542934,0.5975731085146686,-31.52573181273834;-1.8403295098997992,-3.0089054399703836,-18.314886614427408;-23.308811810734262,17.704631398915982,-5.8473019122125764;9.632689975750703,8.393220437368038,-19.25422400470777;-5.5829352588942225,5.30373698887277,-28.764759194496467;-0.5666368285302662,-5.462393816410027,-15.28611773048828;
36.02078320716087,-61.89931508924337,-15.32834815308882;30.604359697319424,3.691384595916758,-11.222371795744012;-7.843373157110489,7.652164387566287,-26.521443241429587;9.42211839069206,-6.757017405082805,-1.2196880829149228;4.207621787659668,2.716905491502478,-24.01656717148987;-2.899850038653271,0.8000424065179783,-34.75772016203837;-1.7153311531100635,2.9180546892464148,-9.228246958629285;-0.5038936873536954,8.316243513882126,-29.254114686261325;-1.3409718550209713,0.5228005689499978,-30.97118328362158;-5.911760164171511,0.37112706193375467,-10.42945818275919;-5.166478018698851,14.169956463413293,-28.54693870300779;-4.432530370200016,0.5918754905407696,-31.410277629430578;-1.7816481585695612,-2.9893485519061147,-17.913215371945917;-23.29998482084487,17.697926698409805,-5.8450875533134035;9.54145028210259,7.563503129352313,-21.24155602647005;-5.638280273995992,5.360565973408967,-30.90816188992085;-0.5733945119583939,-5.445540796882039,-15.644810897941296;
36.124553176051606,-62.10245883458591,-15.813681084702477;30.53219973581558,2.8573638037837257,-11.649421744583323;-7.8842413293211315,7.684772236673049,-25.858083709760894;9.579032135012122,-6.8852977555014085,1.164644008451733;4.17201087841348,2.094836064552941,-23.785842894308825;-2.9023989317895986,0.8072124769551613,-31.31770544053393;-1.737482345542935,2.96177221751939,-7.157728405976659;-0.4963858643895599,8.562892117267202,-28.395043974346436;-1.344385456693717,0.5234006675664548,-31.854312843568067;-6.105029711361716,0.4690447895237638,-12.664406566439656;-5.139881927745244,14.706914673473335,-27.40490650187202;-4.455970745629271,0.6004872497519994,-32.43505282914138;-1.8207851532863155,-2.9647427467594967,-18.493601163727025;-23.3107417936206,17.70609735247424,-5.8477860721393276;9.560379137539602,8.201662256249337,-20.207336359518184;-5.630919288910765,5.391922373470204,-31.541941901854475;-0.5681816719860486,-5.458787693951025,-15.350344755789614;
35.87298151562798,-61.963578841813124,-15.0425594753822;30.747213780703678,3.7626563940153286,-11.223982545794058;-7.8233654008820475,7.64624890512897,-26.875434092861678;9.398196318406018,-6.834213333634256,-1.0740438265160186;4.224142591695886,2.0156266651660313,-26.06462318676883;-2.895383825881295,0.794530050147167,-38.78495613055858;-1.659740158593555,2.910808840149092,-11.717194250887983;-0.4672653278921427,8.860867976602746,-31.63066538428961;-1.3517360171032202,0.536992179074934,-39.88212229863078;-6.454210279950046,0.6866546433765113,-17.027173166801152;-5.115389445656823,14.492724176217981,-32.03808979095184;-4.5547339390433,0.7902825274863731,-42.683036358918116;-2.1136453053820685,-2.7383961846240856,-23.39441333635688;-23.305030318013586,17.701759097431815,-5.846353278288305;9.364844139260988,7.575409032871852,-25.41845779405674;-5.737488682287231,5.633949809571178,-37.39377460727303;-0.7733748545814533,-5.31319677213873,-20.969041446335464;
35.14461805918999,-61.67689605519631,-12.867918947473896;30.533465346513157,3.788080701649581,-11.1455075350616;-7.972781957675337,7.738616385604471,-24.23820642489221;9.65689983257281,-6.89460118635256,2.1794232049000732;4.231509082794627,2.7797084188375547,-24.787870854146828;-2.900507991969389,0.8048567847009994,-32.43545875172891;-1.7307118854916972,2.9466188520567997,-7.778258691038666;-0.4712934726471982,8.86810334819867,-30.75267458669661;-1.3443424036405405,0.5238934664487217,-32.232295588562515;-6.164181798109886,0.4765244879223536,-13.323851034607674;-5.072192476391633,15.221408155219097,-31.25982718785617;-4.465691927872725,0.6353440608634507,-33.943614046385214;-1.7969070828842837,-2.9691845850410092,-18.09070909919764;-23.300308751843012,17.69817274608324,-5.845168815385503;9.359760197861139,9.339132426878264,-24.694569505658098;-5.633507798689988,5.378942040416528,-31.17447865968583;-0.5536289489292183,-5.428022876190906,-15.319362722669508;
36.3520340283249,-62.03765781243747,-16.285442310405703;30.450501649097145,0.89485527703693,-12.67625654143326;-7.965968053202164,7.746281688160858,-24.350147432352344;9.549214947366648,-6.913306117610085,0.7853121555606964;4.108407063532021,1.0848855612246255,-23.671691056334748;-2.903537337762701,0.8051904899960352,-32.19544087505252;-1.6973987114630746,2.9359995066292384,-9.589212343702695;-0.5132877236456408,8.36420224768604,-26.978470421595222;-1.3457625647954743,0.5222247720086056,-31.844622289266947;-6.122132664081104,0.4224046803386687,-12.654269350188388;-5.1591473588399,14.399479405889503,-27.798181241130234;-4.468875273889214,0.6033099907426253,-32.92611442773259;-1.7344116860375849,-3.0224508763765843,-17.025704454534246;-23.313503394021435,17.708194976221034,-5.848478853540476;9.388209296239951,7.950212978258993,-24.545041312845697;-5.636946477752964,5.35136480472179,-30.768994962274665;-0.556392400994068,-5.468027776234479,-14.964013259977717;
38.85449161890288,-63.32624844654526,-24.324793222469435;30.37753848749197,0.10150638097429378,-13.079700854855648;-7.841135986615616,7.668986102914515,-26.479653352228244;9.199359108805526,-6.849619598112565,-3.4863429775314123;4.161183378884529,1.6476809919877355,-24.37524500828299;-2.8960229123932155,0.8007147661039057,-35.93017760776308;-1.621018083210442,2.9141607127526648,-13.476950112654748;-0.48222265213065213,8.403055460897336,-32.739632443425634;-1.3608969165940887,0.5397504579448203,-43.84386548997437;-6.8921681458826916,0.7724218022822701,-21.81839363208733;-5.110336635922655,13.971765353544251,-37.12170764697096;-4.636906877418338,0.8088448016646327,-45.77679092503794;-2.340975244815957,-2.6901434998126184,-26.485192679150945;-23.30587502457529,17.70240070964449,-5.84656518331088;9.015928492607205,7.1605277346091025,-34.347812093419876;-6.120733868856139,5.832843624700896,-46.951832591422956;-0.826972143356202,-5.322207986451342,-21.958806695598145;
40.62915939369795,-64.35091241038931,-30.163687201023254;29.982206519229248,-2.394065359296181,-14.336582464566858;-7.464139013280762,7.4282973723686725,-32.998654004064434;8.46990699054153,-6.624194294806732,-12.862376582191146;4.385801678546743,2.845806222455947,-30.39671523552221;-2.886685600266694,0.7772406942141522,-49.398800321463796;-1.4548369120802158,2.7923949550410585,-23.790863848053082;-0.41887095810423064,8.971003012751607,-42.19421939703172;-1.3820937734633414,0.5747710369977022,-64.6112466649101;-8.17914698697216,1.728313739765533,-39.06552808182568;-5.06943190635317,13.735306152743787,-47.9220961222787;-4.874386125256941,1.2028718145310546,-67.61445660405954;-3.2675107873063287,-1.9055175967862588,-43.08785707670888;-23.31025560332163,17.705728057801146,-5.847664105327516;8.813418086446097,3.586096066817301,-42.940977884720496;-6.419916469421372,6.444960757026818,-62.631599630115524;-1.278291819882065,-5.016848533353812,-34.249707469410396;
41.2903854787733,-64.89856524515494,-32.58933692064445;30.01659061387876,-2.9775379025848667,-14.664909152507102;-7.462206849914714,7.456081594194779,-32.91250430004412;8.584745625657101,-6.662481271435179,-11.428206038641543;4.424118274891722,2.910341045473541,-31.671467097640093;-2.882431536940523,0.7746834819067727,-51.999134678274004;-1.427455904575975,2.7981775197891263,-24.774523368719283;-0.43774360244631544,8.15443155101834,-46.027881053347976;-1.3872757368279083,0.5759674885139211,-66.66188121328649;-8.320708956242575,1.7440232555689885,-40.49197116691253;-5.1023813120129855,12.59671646050326,-52.924389452609134;-4.91547796134603,1.215514245314568,-69.16340782719787;-3.25187569383675,-1.9732644935709012,-42.38385913297959;-23.313498227137252,17.70819105162012,-5.848477557364125;8.539762554782596,3.2966266342260577,-50.88571054018636;-6.560596148736834,6.536317512987268,-66.19075738487146;-1.3721363710878214,-5.000427986316395,-36.323437413193616;
39.32381502227339,-63.77682667542966,-26.21920533495253;30.063066523582652,-2.4522023769967474,-14.386041054427722;-7.7101843365931835,7.594234185250496,-28.72522401898046;9.213615331507548,-6.840787040680297,-3.3719314187054827;4.144488151442061,0.6980735327092582,-26.090877685374036;-2.88801739432593,0.7900146343877738,-43.365171317552075;-1.5273609857343506,2.8706606119430984,-18.686896449148094;-0.4928635155541339,7.694563493657612,-38.023119521909685;-1.3745761921709423,0.5522293570998206,-52.9731072500852;-7.429023151010347,0.9838884085289195,-27.962346187741456;-5.166849403438703,12.628750465266979,-42.90040743696837;-4.779886168096303,0.9236148694903712,-53.86068251006787;-2.6972343363552693,-2.532798384559936,-31.73573266298228;-23.30859842574844,17.704469318474068,-5.847248381966273;8.887243544045655,4.988611823540604,-39.5133014171429;-6.313071748478139,6.008253170146979,-52.72996081265962;-1.0890884031265393,-5.239335387299872,-28.070050379880872;
39.60891384221315,-63.73980455975665,-26.79098222055008;29.723156148723923,-4.307016991485419,-15.303034859047246;-7.732562666028821,7.613538287282827,-28.317055623392847;8.966831400839338,-6.690241470418425,-6.8591605745175785;4.297750652656753,1.099302390792233,-30.97925770453035;-2.8836421203002125,0.7755634857897444,-51.333123465975646;-1.4400728968576557,2.804590782453774,-24.091241056367668;-0.5185334350730474,6.837172150047032,-41.61276321371861;-1.3746246341892017,0.5621212496820972,-57.620061601238625;-7.6088343448478,1.244511644756345,-31.20317307166027;-5.1744996758032356,12.3179972592895,-45.49973496931779;-4.79396044023675,1.0348447316525453,-59.06238891310668;-2.8897906449809927,-2.278222953213471,-35.92786618247761;-23.31073992875071,17.706095935978194,-5.847785604313885;8.850974768071028,4.862586257760829,-41.145797688364624;-6.326604223407819,6.208910646268052,-56.904126422365444;-1.2311500683745116,-5.111383382151399,-32.303044327884294;
38.465418207872936,-63.06516284900339,-23.02505626499975;29.204533134001263,-5.393990107492455,-15.730763534237552;-7.998055830163448,7.7521911626993285,-23.895943004216473;9.15079658664407,-6.858444397079741,-4.018372131407063;3.888110903851683,-2.244379058629068,-23.157807819069394;-2.8919742115552305,0.7935430541281663,-40.57308649030315;-1.6166646126575872,2.898605325477824,-14.071860058861871;-0.6268488043035388,5.941521693969876,-26.7617457768127;-1.3612121942575943,0.5362150229692076,-42.64453675134165;-6.566580861365823,0.5709156909302119,-17.662483802773007;-5.263793203801097,12.698916386319633,-28.480627262055542;-4.680788205864868,0.7674183407157874,-45.31093760081306;-2.2171718709766433,-2.808052155329565,-24.15587394323634;-23.308943984562436,17.70473179394881,-5.84733506964165;9.428900556640365,5.666182574368777,-25.51209313894274;-6.0137734405523515,5.649074746010144,-41.890213752321756;-0.8281945075327106,-5.368856527885222,-21.39099234216332;
37.68690187501073,-62.737681008739244,-20.668632266596052;28.118181645533067,-9.302268710164368,-17.498768309694828;-8.175273281340557,7.79961119404378,-21.202538924051293;9.734994619108173,-6.870698541480073,3.120472772215503;3.618064530529749,-1.7155756675548697,-13.082330603215148;-2.9019871860390625,0.8023463310548088,-33.062894583173524;-1.7167645663529314,2.945805280619916,-8.420356789421307;-0.6161078650709959,7.097599230130836,-18.209854069045562;-1.3488188295781647,0.5273096323906777,-34.67126551048472;-6.236257313711744,0.41842720901274355,-13.656639888097379;-5.322260716229822,12.672133180708654,-21.226374814573486;-4.578961894595057,0.7028431316359761,-39.68292334288731;-2.1504340101533383,-2.897203679579118,-22.69120200085511;-23.305884799026035,17.702408134006053,-5.846567635351972;9.7546653030983,7.916713776031188,-17.470854640335766;-5.905633518108154,5.575726058786374,-38.88133864869675;-0.801541271676954,-5.3827156480968865,-20.72650612979022;
36.53729719148658,-62.46354092240083,-17.443336408135;28.296899335134622,-9.221097566415262,-17.49874373730499;-8.111181728976176,7.7934639679772975,-22.160356982897024;9.644638069236022,-6.905700295370898,1.9791006882383047;3.595143350295069,-2.4720593410767315,-13.414295182364667;-2.907817529809855,0.8080245892763375,-28.976985213339248;-1.7766821920917482,2.970563506166581,-5.245737614354796;-0.6421749290048023,6.412005989944106,-19.023475532460623;-1.3470966103307096,0.5249617070337422,-33.03563121776848;-6.0371017312706305,0.33925241218038293,-11.338712576049339;-5.313353318349745,12.822108403012809,-20.95599571656698;-4.567621212953588,0.691901353269095,-38.86376883876599;-2.022318461397133,-2.9439433164748667,-20.853410931368387;-23.31090333341907,17.706220052962845,-5.847826596383402;9.898969177531454,9.24057304502813,-13.759891284351768;-5.846114101028884,5.5331965338915845,-36.98071047959196;-0.7284673424416902,-5.416025465679443,-18.922797581677408;
37.2871967649161,-62.536666910203124,-19.28850131981931;27.856367872059945,-11.88819834577364,-18.812279967567935;-7.956722937883657,7.714266205178629,-24.761921109486426;9.2117213670055,-6.829869135016701,-3.5895336438057783;3.6828037583686646,-1.5201129157192226,-14.63079660995224;-2.9051469118801916,0.80478690644906,-31.652284595895214;-1.743886154078761,2.960260317769842,-6.954413699325561;-0.5908384494252029,7.7300692296756806,-17.7484088346982;-1.349054132001931,0.5258373131527516,-33.65671396688602;-6.138838242391205,0.4009904507419943,-12.593069011695375;-5.280842308398416,13.594674798013855,-19.08974482651093;-4.585446366831895,0.6851057791853146,-39.0195795222661;-2.0956456196716116,-2.914742224410943,-21.95250644333354;-23.32016854001508,17.71325760892888,-5.850150887328836;9.930053573239217,8.287258781872769,-12.597645689228615;-5.917037621634186,5.514834958286488,-37.63722059819501;-0.7954024892508245,-5.399552340248884,-20.50889042411489;
37.379539483373385,-62.51786069956575,-19.494677287905652;27.731310395266583,-10.914612170985794,-18.25023773770287;-8.121179168901298,7.798633002243251,-22.03877487886848;9.373432755407253,-6.891204655875578,-1.3034271774868367;3.6220162731826537,-2.066162301293846,-13.568386539061159;-2.9063917311704484,0.8043212166847035,-31.357638946276293;-1.7306068135804835,2.9541032348496308,-7.660435050220857;-0.6434143913371124,6.888484133282692,-14.510742247597989;-1.3455215481464262,0.5234072080053632,-31.603257479311612;-5.958173682956509,0.32514436091684684,-10.534779751929944;-5.341887162165668,12.9382190405134,-16.073417265988088;-4.545507470036484,0.638187701108402,-36.205606291506115;-1.9105892118495393,-3.0259108521120464,-19.052671497026818;-23.3179273871608,17.71155530057004,-5.849588666591098;9.93396536247365,7.765077941438576,-12.663315418025798;-5.784895339725766,5.3855823655979025,-33.62427733906946;-0.6390014351616367,-5.474798494613676,-16.536942402129313;
37.235349145299494,-62.57483377613099,-19.2810473946363;28.49299716025504,-9.564040146922924,-17.758387006336903;-8.215615977693272,7.86037394442827,-20.316648572582626;9.528183421128228,-6.919340080966202,0.6765767471807319;3.5884876035807265,-3.0840671337958523,-13.974904747649424;-2.902384511966357,0.8052112657545517,-32.00111085814996;-1.716751571644229,2.963211727058239,-7.972390765375619;-0.6784922666792221,6.200599356192854,-13.375169287422054;-1.348590446758572,0.5222157921980903,-32.24405605813025;-6.043533655865672,0.29605292049472626,-11.066553990455692;-5.4076676129679,12.337992079659676,-12.781323189677083;-4.537659631551542,0.6099059705706594,-34.68664556753401;-1.939662639765747,-3.0414898208242174,-19.096798941103525;-23.31180934753446,17.706908232441197,-5.848053881159054;10.119800688617412,7.638243817224428,-8.624962787126298;-5.773880511784176,5.37472148416363,-32.923777519384196;-0.6857086291558189,-5.465716279113824,-17.41877296438461;
37.86595883882844,-62.83529570822352,-21.19443855322634;29.217471862941192,-5.967664810298157,-16.050806893138034;-7.878133970241804,7.677333484775407,-25.941210170282467;9.215384412216958,-6.9151061694543,-3.1435042868617624;3.8676871454451374,-0.19629598234400297,-18.06960128951385;-2.888832851221913,0.7916734246947524,-41.81552475256701;-1.59833503251907,2.9100613406857954,-14.423543187072967;-0.6570785839383654,5.707567321496402,-22.15332304774825;-1.3614674259300132,0.5357739997689709,-42.08578392530561;-6.531715274589112,0.511946583686027,-16.839787112025036;-5.39397444841125,11.262378574997646,-23.256209831100353;-4.656043026334841,0.7530803230874697,-43.676822140557285;-2.2655649994380274,-2.7955744585400684,-24.701273206126988;-23.305650863433723,17.702230443978213,-5.846508949733455;9.668749168428182,5.205905530070691,-19.896388076333967;-6.041507355419904,5.661803870488023,-42.12876677666908;-0.8684236215351476,-5.3455134576990275,-22.402622703571915;
38.842422060338436,-63.410323226003776,-24.369768070145156;29.300497063664654,-6.632531564008016,-16.44871519270023;-7.817087215223559,7.662374301141834,-26.87810973637723;8.962665786554078,-6.820779864056154,-6.523592167133987;3.969705083546574,-0.7358336398698395,-22.78779815351449;-2.892880048339878,0.79570266338337,-39.568469989642594;-1.6473882190434186,2.926150371761969,-12.141044243359568;-0.6344825940067179,5.5392058421685055,-28.447298361106814;-1.3647343060316621,0.5401203955070928,-44.97208774693412;-6.584885053751921,0.5328014013143055,-17.576743442918485;-5.305499397128449,11.796504294353866,-30.345786043031527;-4.699843359720407,0.8243515114230604,-47.908946221651085;-2.250257677136333,-2.7873295736361605,-24.75159191061205;-23.31471545192376,17.70911561681796,-5.8487829131615685;9.433685012399811,4.4609737542080135,-25.55209846058335;-6.129104006580428,5.768012691952664,-45.683449092540094;-0.8373197573003237,-5.358885801636259,-21.730356189992158;
39.35312755729636,-63.512966749486885,-25.785299540746482;30.06132179617001,-2.5301601573315593,-14.435246742264232;-7.856504902193671,7.695256411530531,-26.164564720586984;9.237750179354675,-6.901383763731466,-2.9354067587577175;3.9600599406387,-1.632138537916131,-24.106858744891344;-2.8880691983314732,0.7936825658720591,-41.88065258849733;-1.6096351061314733,2.926611243651349,-13.707984931504264;-0.6762313521555039,4.652909534264883,-27.9235283045595;-1.3674980615001568,0.5377346194669393,-44.68242406257859;-6.596160806518605,0.504352243618089,-17.566260076455432;-5.400006142116475,10.32709752434255,-29.85089168452925;-4.741287497043994,0.8257594428499161,-49.10637160245388;-2.1357518816766974,-2.8793582065038072,-22.79716831040901;-23.31596868838175,17.710067535334044,-5.84909730292957;9.328948966652685,1.5784126602343735,-28.23693008396483;-6.206561394826871,5.781802052465646,-46.896790353956995;-0.7992087325114191,-5.3891402147262815,-20.723706205217084;
38.95954962456754,-63.40267902624051,-24.63855173717729;29.97816087958346,-2.6166756314788056,-14.457356133307757;-7.844102248873569,7.692789444889146,-26.394732676021068;9.177456094291456,-6.895964747671623,-3.7342533646970053;3.9137088689585267,-2.055695470055021,-23.206414893878563;-2.896577351005328,0.8030656473962278,-35.55263468676517;-1.6735041519542864,2.9493484224711315,-10.437065945216665;-0.6778376174964228,4.590272077547724,-28.393639148344274;-1.363019965917758,0.5323930638400894,-41.08025933402312;-6.469870620245438,0.5070005191550916,-16.393758332358974;-5.382819317811234,10.514768997252686,-30.785176877516545;-4.696047681775477,0.7666591727435659,-45.6185250587966;-2.046433121568939,-2.9094177459970267,-21.534999686339763;-23.32146688355338,17.714243789347428,-5.850476592762158;9.382319357277611,3.039733920436881,-27.13319044656167;-6.095720517259936,5.667710736771549,-43.19945128799453;-0.767356378496954,-5.4034818869011305,-19.922212374152195;
39.11372180051069,-63.56810048727316,-25.28428265620018;29.492152324881094,-5.415553230183935,-15.83401740352657;-7.802874985651571,7.663316314756029,-27.130867822548783;9.465041894349275,-6.954308092094456,-0.11020853463937276;3.9277781596089225,-1.9214632545151134,-23.548196325267543;-2.89498671181393,0.8022434133147504,-36.59479042442944;-1.6625271563221549,2.9475851540840092,-11.025612844277415;-0.6665220506359111,4.895481819767949,-27.942828812891488;-1.3614198418455974,0.5285075075695033,-38.842179179503965;-6.547612973736388,0.450130518614316,-16.808263647387303;-5.361488134639618,10.978331013736016,-30.38510319633272;-4.687777293986517,0.732858762637573,-44.00500090789221;-2.0910989696031783,-2.95307577489748,-21.630912264141532;-23.32339831234532,17.71571084116969,-5.850961115412171;9.387398354420691,3.780170602517717,-26.98181505509594;-6.102029460590962,5.6207336921829,-42.42292569138462;-0.7851061737416201,-5.4240431849512705,-19.94945557905057;
39.53066341812528,-63.81785286047088,-26.72700462882158;29.615057260193975,-5.120729666087796,-15.703248687164267;-7.883379962301116,7.717122656825404,-25.635768860448106;9.198748085243308,-6.9251752404047595,-3.294549950987768;3.9462801937932013,-1.011224660574443,-22.05033012060432;-2.8954811906889506,0.8043543209060431,-34.9551057453238;-1.6660503941233957,2.9586301201249414,-10.469853657993953;-0.6283894697911324,5.56833660026985,-29.22320216414299;-1.36724347367521,0.5361650736295841,-44.07567827852465;-6.848339420239881,0.6138211843940823,-20.47752575219916;-5.350238170206469,11.089387739428139,-30.60607777227872;-4.738919185603108,0.7957625139299794,-47.88185362889453;-2.294784596503767,-2.8209517821119734,-24.929979611031012;-23.31315881012855,17.707933241267195,-5.8483924104358325;9.37327650890752,2.384524401908624,-27.333958620778134;-6.134690404894067,5.6716476161487135,-43.81730062044592;-0.870578816927276,-5.371425459296951,-22.14818041969932;
40.07885709862579,-64.21940084032015,-28.787510327827963;29.43298648874699,-6.079521412780848,-16.170751477645055;-7.8389362689595234,7.6786186689396585,-26.339343930159902;9.034252915568176,-6.874695266055772,-5.3888771212203395;3.994572356138286,-1.0226546351329886,-24.04745067835569;-2.893736899800176,0.8016773856351328,-35.83150355304884;-1.647459444063499,2.9374690384243576,-11.79252629278971;-0.6355914852773555,5.428006622915947,-28.883363599597157;-1.3680685266687729,0.5391752453005394,-45.85415467799014;-6.8583617553005345,0.6744924031961167,-20.898556976690152;-5.334259633735391,11.068564620305203,-31.85745986087407;-4.748519440086892,0.8266794606334201,-49.34506721347188;-2.2767863815513856,-2.7788123228071897,-25.054920126942946;-23.297841858696945,17.696298972585538,-5.844549964921128;9.22606559652577,2.9793442714199503,-30.55012458369767;-6.136407965979131,5.730170201778503,-44.98896674472813;-0.9290438791338413,-5.308778775926,-23.944203742321005;
39.307792307197666,-63.7240139697444,-26.249339993417706;29.9778637539317,-1.9551498378786183,-14.090346994947419;-7.921873071674949,7.72471967916164,-24.935176201650734;9.277111887172602,-6.944079775294907,-2.205057301195193;4.095992896298597,-0.24161655166546142,-25.89673947050681;-2.895767974526879,0.8045931587272149,-33.72251505764326;-1.6806115144000133,2.9488131065471053,-10.015332903505529;-0.602210585236595,6.266234916939679,-27.806022733665962;-1.356321520227522,0.5245111333413907,-36.56023773361861;-6.227299728958245,0.31162306309974724,-13.19152813611687;-5.341109849522209,11.377497032359024,-27.74557530692302;-4.6352329297284784,0.6527798003985429,-39.57718291492614;-1.828383249008309,-3.10711010285451,-17.57387989350067;-23.29204893013119,17.6918988484693,-5.843096737594233;9.41019777530384,2.674745420102281,-24.925522848693664;-5.941849663706705,5.415507894228834,-36.62486103250119;-0.644020565202402,-5.482817318910711,-16.492008425084943;
39.76844452823962,-63.81707732609457,-27.375216784317278;30.08092711761206,-0.9442991855755396,-13.578940738564524;-7.863163768407515,7.698020145305868,-25.960352677213926;9.227572801877526,-6.917797522495445,-2.982877992591711;4.166758364440402,1.683574615818596,-24.38512931132382;-2.890025260270081,0.7972408150475866,-39.227628217651095;-1.6398503798883948,2.9318691719621985,-12.269451476538887;-0.5761461163491147,6.706193292828217,-29.125144751147463;-1.3571078959981941,0.5260104164037512,-37.22365138336732;-6.108399797226876,0.25957334614989924,-11.802655028213971;-5.3286704885484735,11.379999954142084,-30.519677028486583;-4.621108107967429,0.6712107057050414,-40.05105383682522;-1.7718718793120152,-3.117522395452271,-16.808780475328387;-23.30377471618377,17.700805382255936,-5.846038295137565;9.36851870589373,2.3147400276103367,-27.28126814183476;-5.976154560401763,5.496356131131338,-38.57810987768445;-0.5592587480013063,-5.505052839101101,-14.636531711116943;
39.799311325534894,-64.15257341880898,-27.973935257375533;30.411580663008117,1.3316046976283635,-12.434658745009138;-7.787778840711687,7.6646262628720505,-27.173566092986878;9.019741932633336,-6.872728834473061,-5.62164988733295;4.305349192624122,2.1825393247373293,-28.427701335692124;-2.8849555625174053,0.7893819284913289,-44.31740461753151;-1.5714897834030237,2.8932300774976896,-16.209324452141125;-0.5532772214983045,6.753515463845085,-34.01777193124636;-1.3627690264670242,0.5347927358387163,-42.52208688052174;-6.438655064629194,0.5090239574822368,-16.234160535926186;-5.2884999434648,11.423700791636065,-36.31798955998587;-4.654660957669366,0.7542420445301253,-44.19179309298351;-1.9560354463926173,-2.926827373991141,-20.3417777212124;-23.304148847490644,17.701089560485574,-5.846132150574068;9.132376390522817,2.1553274675671337,-33.27552165231484;-6.063889337547342,5.666269500312254,-42.98167704675814;-0.6963983005217469,-5.408911869977127,-18.467280802881714;
39.54672405204851,-63.87919821156704,-26.923400070545142;30.636789889290345,2.440597991283915,-11.90653088719653;-7.87941388246299,7.715484379787214,-25.719383395796104;9.20274437583406,-6.888786560338481,-3.449787872026348;4.139787907020796,0.9027606910578583,-25.26340678700516;-2.886520265295744,0.7907523524606408,-43.819449275312316;-1.5873012388880576,2.9070283804798525,-15.236714064106325;-0.5679330506149816,6.676608580266031,-31.582654664018715;-1.366097921418594,0.5368025924081675,-44.05477650507435;-6.612659031511695,0.5585383709448359,-18.049630660014056;-5.279183284211208,11.710100338637737,-35.567069460873256;-4.7143307387186315,0.803848068093801,-47.65090152794465;-2.128436791423399,-2.8384360314750303,-22.970160927890557;-23.314541270177127,17.708983313908114,-5.848739217529739;9.106541632873872,2.559800479908436,-34.354233719812505;-6.177497254392006,5.762992690710649,-46.36638114800365;-0.8226447431769611,-5.3528987403439166,-21.62388949846225;
38.480459382397406,-63.32928495168291,-23.535920219379353;29.81543520298176,-2.954525439276663,-14.596313756713249;-7.985711639321992,7.740545261471408,-24.070170764269264;9.281102152386275,-6.861297575095866,-2.4366385973898503;3.9484599242020617,0.13843667290627448,-20.10106748266399;-2.8954845337709005,0.798438424350078,-36.86692660660957;-1.6592349201908523,2.9317191667887705,-11.319740413723574;-0.576857715765894,7.2304954473193845,-24.17830352288279;-1.3551604312514272,0.5299541408915219,-37.93519884557774;-6.1459372322326,0.4123284774384963,-12.797533718212758;-5.254164547908598,13.056578868587387,-25.96505317385679;-4.577240073344146,0.6745735170302806,-38.522695615494264;-1.8571670402706564,-2.996540869036021,-18.59337507029436;-23.303829256433847,17.700846809293573,-5.846051977229607;9.391667918802796,5.910866355353392,-24.96592351591153;-5.820462873103829,5.453505083933965,-35.165407579421625;-0.6101504579297524,-5.448689387127495,-16.213407394031147;
36.88900106930818,-62.382387673446864,-18.134368515562407;29.56886290202844,-3.79576996793438,-14.971523577962037;-7.977227889416707,7.737809905326482,-24.339992663066266;8.976775266513213,-6.714009931841807,-6.596696177815457;3.982355766671165,1.1419074590602227,-19.22702928546455;-2.8905167699215726,0.7830509796352273,-45.29317018084758;-1.5414675538981097,2.8526051860209347,-18.18225622424578;-0.5144169427061361,8.638331760678968,-23.868409743451984;-1.3580931954104247,0.5402459883490413,-42.61856248633209;-6.633597112453477,0.7476353623751086,-19.02363420150858;-5.121884399441079,15.00437948727292,-26.04677411629328;-4.593203709140458,0.7731546406343512,-42.53057146875486;-2.2746204181015934,-2.6890738399593137,-25.654344986392555;-23.313894266340725,17.708491870392294,-5.848576908665503;9.319573743405481,10.15922121448626,-24.29670664850826;-5.81346923706369,5.614647332365626,-37.478777202759794;-0.8707662405637745,-5.293441771558737,-23.140655055058268;
37.14073963686518,-62.51796736299511,-19.052327024071886;28.893200847083182,-6.952096741857987,-16.46246323042409;-7.986205627897172,7.693688278627061,-24.366382645323693;9.278598551259893,-6.7709271701485845,-2.576825803976918;3.9468567535300507,2.2716516294723066,-16.314771314658607;-2.8879669127615863,0.7835743892083925,-44.80804081070296;-1.5560979222492002,2.860033325575008,-17.141168854823533;-0.49848328113800805,9.245089963396207,-21.662633827805795;-1.3586751021307863,0.5390503267968073,-42.30570971275376;-6.660471241571064,0.7240584471261964,-19.13886086087784;-5.1116150558153,15.27166706165537,-25.688850541402683;-4.612403485645725,0.7664334164740666,-42.65404939744331;-2.2819948300032986,-2.679706740263494,-25.718008880871505;-23.299989020117945,17.6979298880448,-5.845088606752563;9.39254750596881,8.986849473380037,-23.12619758117652;-5.824427016083965,5.545568021399378,-36.461533652745665;-0.8237591828712193,-5.326406043503367,-21.734963372096114;
35.65226117963569,-62.23772627835643,-14.936106108622212;29.585368740857927,-4.039681449896453,-15.098801740196114;-8.170985852634233,7.777452787389026,-21.316794701576917;9.614678733517037,-6.764650281864577,1.5290126432147038;3.86833189319795,1.89704898153683,-14.360059889976233;-2.8984726596732577,0.7942490333613941,-36.7985544268458;-1.6124172383508453,2.880375841582984,-14.265544586167321;-0.5542226941427512,7.925464107716304,-22.564459194379648;-1.3542875711604458,0.540046600278893,-41.306232395340686;-6.829612013418561,0.8789264209449058,-21.525543437441574;-5.202687476705638,13.88227148571001,-26.515328886719377;-4.574861283125402,0.8391470216456746,-44.49316369507918;-2.507636644294683,-2.4879927974121676,-29.70490920715805;-23.29917111978236,17.697308636987852,-5.8448834264012515;9.423997794653467,8.483582623072644,-24.5756037988996;-5.845079170708051,5.730319107997871,-40.235906016112885;-0.9408988741757265,-5.212431392120288,-25.247271364381742;
35.317554815188004,-61.77012806759962,-13.365919963095356;29.6080822176629,-3.3122234994235256,-14.71575647882103;-8.073037522548859,7.721961761517176,-23.011353320306085;9.363629693002641,-6.721301053657587,-1.7606916517123912;3.898144582656448,1.7881800098369323,-15.11817355715599;-2.894115324957668,0.7917371246452872,-39.67785294637626;-1.5672807446197814,2.879584274850227,-16.38844490373669;-0.5255080954722623,8.53078194520417,-22.770859116932293;-1.3567243027746647,0.5395288071102777,-41.94608313499009;-7.034546738204104,0.8185173485521026,-23.201166224390313;-5.16181629887318,14.402490432617142,-26.553974982818755;-4.591043465304751,0.8357239342090405,-45.11789077843432;-2.5701779802099964,-2.492445928288176,-30.437594369740186;-23.302674584565377,17.699969757302107,-5.845762313600343;9.416141436172307,7.464677368075145,-25.92216174960642;-5.977875966109644,5.866471181746698,-44.996148008331794;-1.0386944138546605,-5.171120871116506,-27.659658267765153;
35.9556445829985,-62.24849572730684,-15.752853503074192;29.60225695563872,-3.0714189609110947,-14.59345045559215;-7.912562033602113,7.617216906926399,-25.732251300159067;9.02887937187129,-6.553666387080444,-6.098160736977712;3.9970736944374607,2.903219547284748,-16.957551113440292;-2.8880909626364697,0.7753392005132361,-47.806662705352686;-1.4972320591032595,2.815869012516496,-20.69953221893193;-0.5131886480915571,8.695921032279285,-23.708798650028058;-1.3483560941574546,0.5408244528658446,-39.54817445952072;-7.026642615341187,1.022501972631675,-24.24290835935315;-5.19306539389885,13.677451787520122,-28.621623758816625;-4.5048138611121304,0.793005641443055,-39.92631148386739;-2.4909543336435163,-2.3778817799897927,-30.405544973104607;-23.288654519769782,17.689320562421077,-5.842245208037356;9.392188996445865,6.221210110415179,-25.906364203153903;-5.8572699427918336,5.874009188655445,-42.43305873216994;-1.040970567920083,-5.102958184270624,-28.439177924706573;
36.597652789865606,-62.624146394888506,-18.03072318511467;29.61949018373493,-2.723430846074168,-14.41936654168229;-7.951780214333285,7.654682318382461,-24.904424514718364;8.787828217698634,-6.498902523543414,-9.382943927187378;4.22776115673591,4.1633811018327025,-22.661841358789722;-2.8767909426635745,0.7612204445367613,-57.35554218775422;-1.3976869338851285,2.7596764388096684,-26.438740405932972;-0.443415500127547,9.206252678031706,-34.53212563035495;-1.3682230560175463,0.5622210575929202,-55.1491576191161;-7.763268568270049,1.3577008018470604,-32.91782955996955;-5.054501637585591,14.539373952472177,-40.398904887194426;-4.70069425410817,1.024474916520843,-55.050679468718926;-3.0087444760504054,-2.116938017629418,-38.29766924890871;-23.282793159538446,17.684868459790746,-5.840774813786077;8.949532943647876,6.975665512698534,-37.11939378042177;-6.1775706490561335,6.226245462539604,-54.46580471339633;-1.2479248824526379,-5.037425406283036,-33.23703306760464;
37.011695573504646,-62.60918832929544,-18.715011857345115;29.59508750448793,-3.8721561434195384,-15.029376801082877;-7.8777188596595105,7.630175884192783,-26.281630944394642;8.81792447305355,-6.621101499473823,-8.654024125975164;4.243756266452396,3.791966269653362,-24.249781678191578;-2.875673021250149,0.7619107880652898,-58.886684953403076;-1.3622032943977869,2.7795137548563194,-27.690518451017827;-0.43371506108571234,9.028710256691193,-38.601424295602314;-1.382924540708106,0.5804232050894653,-66.82982657335498;-8.311011403210333,1.5866456629137602,-39.1500472171952;-5.013472829116364,14.83180833484882,-44.30269932787478;-4.839868721677667,1.19858002769344,-66.12475419042893;-3.3367849154084994,-2.003240420925058,-42.758432699048136;-23.310885798450993,17.706206733959686,-5.847822197520841;8.751961820759718,6.548245923742186,-43.1639396611188;-6.505634981874807,6.5281268090543865,-65.03899830006567;-1.4311511474976442,-4.974884441112475,-37.52704308185573;
36.527066883559456,-62.3286746566749,-17.071296282513966;29.3396327409038,-5.509674337486641,-15.83322660569038;-7.922972532980103,7.647972073729519,-25.58026468542253;8.370312703331491,-6.477905483012616,-14.567438134272868;4.238027663627631,3.4151038356043393,-24.345005567904973;-2.8711005579343665,0.7501218411048954,-66.02918650740233;-1.249524291722144,2.689290443996135,-34.82324390680006;-0.4308703499254662,9.434454488968399,-34.87908794546082;-1.3814709349612515,0.5803372493265685,-66.68077053440905;-8.55541958138084,1.8720427769887198,-43.08750943087491;-5.061402080612808,14.70642232900019,-39.08081023782004;-4.833946853129315,1.2181221616086066,-67.07471752153278;-3.5849595730238444,-1.672345006151162,-48.312500696085614;-23.31356621994695,17.708242696795427,-5.848494614195906;9.031942288863492,6.105098506820924,-35.830465414118805;-6.510972313434771,6.637461501432851,-67.44711691633954;-1.6389993950705206,-4.778619606364231,-43.955536701811845;
38.26771588092438,-63.18958193777099,-22.62868049166357;29.506952134822246,-4.334622604792902,-15.244095794578778;-7.9872224989070215,7.703159524994367,-24.30967527786284;8.379409572402325,-6.475427537444217,-14.545442957846209;4.324832724152702,3.5178303747740967,-27.329136070379775;-2.8744816379621136,0.7561324920308278,-62.52964021569952;-1.2948964994702712,2.7200134501594104,-32.22392122097808;-0.43710337132490534,9.12662916807444,-37.13865376425316;-1.383215460118801,0.5840095748725225,-69.02158154191976;-8.66755898952009,2.0229301804641797,-45.1411267110916;-5.1029904026545205,14.018690186112595,-40.74825100544963;-4.86271639907533,1.2568958033139292,-69.68137042082614;-3.6117324581029364,-1.6214287173780229,-49.15398174745027;-23.31503292068795,17.70935675598447,-5.848862554102782;9.005387515592519,4.15759052801645,-38.58967019565624;-6.526412328277596,6.6323233103020005,-67.82553914154585;-1.6307370344695753,-4.771982514676186,-44.050300455581215;
38.42011951506454,-63.06392161903655,-22.838180221519327;29.83466583851509,-3.9432922100263705,-15.134951269007166;-7.714715623120456,7.527508416837622,-29.10233723598844;8.160717892448739,-6.445652826320738,-17.10496808507128;4.3571443708181805,4.783489019702265,-26.33265941366483;-2.8753013235522764,0.750111375063859,-64.95833347484239;-1.2854479386483373,2.6867405087027114,-33.49218353934687;-0.4060726818260618,9.87801206559702,-36.421009048575314;-1.3793965543518065,0.5817933421670661,-66.79296403444586;-8.31904289668854,1.7083257034620072,-40.07397585259671;-4.986139563448038,15.497820631858685,-43.00686504713166;-4.83193471693867,1.2433321456328312,-68.02949119859852;-3.32475728246238,-1.9133013193797097,-43.53699949098236;-23.313633743707985,17.708293985692872,-5.8485115533614795;8.738573635109296,6.16065515286636,-44.13615750502961;-6.432106217221132,6.528522615252694,-64.27627001195704;-1.42974075666355,-4.900330782452084,-38.496897996450215;
38.20528137498521,-63.23796163381241,-22.640815338334622;29.192734562293772,-6.082799185986516,-16.099896069284238;-8.13599506822933,7.778764585681414,-21.868324822090838;8.99623240066085,-6.74482787759168,-6.206255364787389;4.115469746581972,2.059345588207711,-22.734465279847623;-2.885523004714869,0.7803243661047315,-48.048256269848395;-1.474607485476226,2.8387124910253205,-21.42602018290577;-0.4638710163385683,9.392073748423027,-28.37710618004876;-1.3660019437336766,0.5500479321589996,-49.53023094605642;-7.242596836612394,0.9238430022555579,-25.653981945648244;-5.100168638530506,15.186408454762136,-29.621809902575357;-4.693207345750668,0.8989237986499479,-50.64094987710572;-2.6356832839112228,-2.5497262030824768,-30.72840276058084;-23.30805459696619,17.704056243444434,-5.847111955832518;9.395040587473392,7.0159448918786165,-26.600685932344927;-6.10412251800543,5.889141200925189,-47.49013849260566;-1.0908516151522385,-5.222461238125907,-28.121077486348273;
35.79456474860582,-61.808494317205685,-14.588447034817802;29.473960525740534,-3.06082879862119,-14.537178263033985;-8.279660645343624,7.891149570427923,-19.150218074426324;9.728035175370236,-6.914308355797478,3.039936454704734;3.7115939555481985,-1.4682474817464186,-15.568145619698372;-2.906052173915917,0.8088698573357412,-28.931606530630386;-1.7396447876640082,2.9513008250953945,-7.325809782087165;-0.6059952722820918,7.05127153918873,-20.49153808391084;-1.340325396270731,0.5159485565801835,-27.437168209232176;-5.87997886214132,0.24828415430729364,-9.457870934359649;-5.2221780029507086,14.205833881366354,-20.62487169161725;-4.441245102841241,0.5414163415921665,-29.447663139072464;-1.7143455331598643,-3.1330800641413004,-15.925456704268768;-23.302190582414482,17.699602124676296,-5.845640895712385;9.85034994611443,9.851130726427886,-13.549330928701481;-5.594691852264768,5.289351392689174,-28.826927521350708;-0.5466351213093256,-5.518631020129903,-14.1037029941831;
36.93213878022232,-62.72211257685212,-18.66817270023894;29.088828190032256,-5.703547733656721,-15.872730810144006;-8.102938455919169,7.791923394681281,-22.27567942001809;9.444692070924956,-6.852527895359206,-0.6202558188299803;3.8764272538959736,-0.5119908605347949,-19.197329248655468;-2.9003792773022417,0.7980168838557503,-36.21846256422921;-1.6625213325050365,2.906191823777663,-11.957594555939187;-0.5775977230467932,7.545287870810301,-21.958493083192092;-1.3466991655528755,0.522428928488183,-32.04600073611173;-6.152556228390931,0.414793786610051,-12.963380361845873;-5.194461428028842,14.339962484193792,-23.504702314924057;-4.498315358272612,0.5994175862324622,-33.43965790608942;-1.8473151812579867,-3.0114464581856235,-18.440232428143847;-23.314681769246466,17.709090032527858,-5.84877446344809;9.631888142239902,9.238772491191137,-18.458247034940126;-5.686527221475949,5.338909663756611,-31.05417975441748;-0.6309112306185664,-5.475567117120025,-16.422267915460377;
37.31599519102366,-63.02817735141594,-20.061495980107697;29.31134968018666,-5.220535834021728,-15.66677791741815;-7.978664107615788,7.717780672616372,-24.512814422675273;9.26804689806229,-6.796381103251553,-3.0017199447165432;4.034823507454585,0.32722703779748724,-23.476933048163822;-2.895914405444192,0.7881619665057727,-42.62408740381962;-1.6036911157149232,2.8697055737048514,-15.479283588313411;-0.5286111900050934,8.06681439261982,-27.67840443712122;-1.3564792902540808,0.5402666112767753,-42.2148293917546;-6.67648660846257,0.7241621567899801,-19.456600692435973;-5.177833994993752,13.92001605940124,-31.053874984584542;-4.594906670760779,0.8009212366683355,-43.91701577972673;-2.2869453477215367,-2.684892241143522,-25.88713169998778;-23.324674296704,17.716680038265068,-5.851281211770858;9.27519039536958,6.558968012243461,-30.276304055463736;-5.957986966770988,5.749171125905874,-42.46482764808995;-0.8923412318264173,-5.294547811470654,-23.5528299919807;
35.56788254657508,-62.28688007022979,-14.678858821996343;30.449753071625366,2.500249879954372,-11.832159252004113;-7.9992757105092895,7.751297344021598,-23.948455655490637;9.623392075784082,-6.839444713281625,1.4545074007068626;4.047345357809093,2.2139693931983047,-19.77917150322975;-2.907134157253154,0.8084689278288538,-29.80310021966368;-1.7866947685759949,2.965340829301996,-5.071291913272142;-0.5471335100126261,7.811848332349011,-25.463975681146938;-1.342055403131663,0.5199916469974506,-29.47871000117009;-5.882570615744736,0.34654092636083805,-10.093148177214603;-5.221096072220771,13.579062298712147,-26.807792495781754;-4.427595948961546,0.5741242625454899,-30.304925923574576;-1.7538782405883426,-3.0169177008499357,-17.34754060512888;-23.31684247405411,17.71073123511195,-5.849316502804614;9.595445623232306,7.339540718250375,-20.894548406625116;-5.628338002875663,5.3870159782012275,-31.024110819598626;-0.5585582821507828,-5.449592771846969,-15.242078021173949;
35.611532886021415,-62.381266402922044,-14.980485804305813;30.278162108599123,1.5091080695482206,-12.30595139670821;-8.00377903052186,7.733755811532789,-23.893933131331256;9.681547253702067,-6.833101283179955,2.2473567018024894;3.9673010334794263,1.2776952860867892,-18.868958991463554;-2.906169149686121,0.8070272517599758,-30.016644141055885;-1.791671748692302,2.959637444811493,-4.874342178792287;-0.557545390222203,7.475584131820051,-26.401844538946573;-1.3402280368189292,0.5226210151438501,-30.27200273407421;-5.959510332129073,0.4251448277235455,-11.227496735923308;-5.225287679782054,13.42467538107863,-26.999477598512843;-4.395575709930934,0.5991784543606608,-30.455057516291987;-1.7685920273778413,-2.969205725938685,-17.89229773620732;-23.30750569515364,17.703639315102432,-5.846974257066706;9.653740900354967,7.884261353916562,-19.909417631871406;-5.5583173314783485,5.375890796238654,-29.86153566665975;-0.5242347638927195,-5.446922135788365,-14.58094283952106;
36.128200903407624,-62.40847818823096,-16.21685275823262;29.676117235809432,-3.267508588261667,-14.718707640203627;-8.351551336239353,7.8571263928850374,-18.46122561043066;9.645697882969587,-6.8680471081699,2.025978925728846;3.674250981181793,-0.25110977697270553,-12.041487544211616;-2.9082736454564624,0.8080544206240307,-28.481122152670775;-1.7185580683640904,2.9552170030171068,-7.987452908007417;-0.5561192602138522,7.933492279850003,-23.27414831475492;-1.3463835873099073,0.5301814682938659,-34.22637641421469;-6.618205409178804,0.5153274254906621,-17.658185252215745;-5.175082032739163,14.302291486622233,-27.330713544968294;-4.502940272015054,0.7041072978639995,-36.93758822942454;-2.21204113963012,-2.8478477345219195,-23.676025730143632;-23.312307276765193,17.707286443633738,-5.848178792826266;9.385511840701595,9.702028577849445,-25.231990654439254;-5.8275515785940355,5.596486796014429,-37.56046733931499;-0.7897557156362401,-5.36639624779736,-20.602549292277228;
35.925435121687975,-62.448684868828344,-15.575087773753019;29.179358909848492,-4.708195334571211,-15.335117532305437;-8.310751275279793,7.84202351439272,-19.2536987679073;9.516160557822428,-6.873027968792409,0.3800962323574185;3.685193080650839,0.8660000706175757,-10.29159293976103;-2.911125028630094,0.8057309425098831,-29.7248065993121;-1.686103291537115,2.9308775893515215,-10.216071833184543;-0.5214894615868778,8.98201600616081,-20.52695090608381;-1.3464476109943253,0.5296853069844095,-33.65665535299241;-6.6511935403865525,0.6305198715588006,-18.621667594721472;-5.127262685938015,15.300220413710008,-25.97699038218828;-4.51268282190576,0.7342635840143852,-38.57781858158688;-2.31937264284915,-2.707859059438466,-26.006366352801766;-23.332805281866104,17.72285607574005,-5.853320969330154;9.434474835179174,10.89181210471861,-23.780195224076472;-5.872164729687094,5.7041653688766205,-40.349599820203586;-0.8526611223927636,-5.322497021270313,-22.473719915557215;
36.41354544274392,-62.504557843344024,-17.106114251494834;29.65745897922559,-3.301752052688261,-14.70273332506389;-8.138933238071619,7.780782808351559,-21.78178538464979;9.50478364838172,-6.840711115727999,0.3135750318728308;3.8592196049285583,0.31374136986671286,-16.946019478634295;-2.900766658304003,0.7979742050830834,-35.07983466942027;-1.6687091004271457,2.9270828873505095,-10.813554891852155;-0.5479142883366536,7.847871853619552,-24.628325936361;-1.353198081319221,0.5362861688502555,-39.13221199861644;-6.588458756667769,0.6330551725805919,-17.976385983457543;-5.198452267229771,13.676029148104346,-27.775909255961455;-4.554093538011366,0.7707851280092057,-41.17646938447115;-2.2330927039820887,-2.756581420108306,-24.564820573834254;-23.310044703794038,17.705567865234464,-5.8476111985890284;9.398185539292477,8.60114249586161,-24.850856593289077;-5.93395215569117,5.747288729926655,-41.96816008411991;-0.830306346365349,-5.317918374688729,-21.88552583519333;
36.37050551541473,-62.37779478704933,-16.79838760693222;29.63833707059471,-3.0676945157194733,-14.58374665363498;-8.295653115469749,7.816889625283175,-19.575378070005012;9.675931014304217,-6.839121718645653,2.322520865858599;3.8120430626360426,1.351807300059064,-13.460145942528042;-2.910211518018127,0.7991194290217863,-32.519124980632874;-1.675865554090991,2.8856392326898392,-11.708162473405011;-0.5126170062939631,8.937879131053585,-22.526171360132135;-1.3453989159316635,0.5316985660247348,-34.792474676987155;-6.38440766991158,0.6328106283526839,-15.998963177879334;-5.11930298881676,15.160459631699403,-26.84000855076276;-4.487046941009019,0.7258902308415547,-37.627271683583324;-2.1053228922266363,-2.802010183260925,-22.760767357715668;-23.3220900981296,17.714717163297998,-5.850632933798248;9.305349931571682,9.816641216230844,-26.852997341027148;-5.72647856931078,5.648252377958696,-36.980704140219224;-0.7529346855846653,-5.345074309959791,-20.102648064615906;
35.64797002474901,-61.9424283315908,-14.395207176056665;29.673736347014152,-2.6177082039022497,-14.34855949485768;-8.270602118050121,7.815411159923102,-19.834898162152054;9.843004993771716,-6.800177853898167,4.217128195612033;3.7546594840019183,0.8602575036812772,-12.990657600744957;-2.913079269029982,0.8095649326218853,-26.461333074355945;-1.7801752672687199,2.9537560132204232,-5.440017098139149;-0.5373972700170525,8.44879139109153,-22.303539574285548;-1.3389832438293008,0.524095778862764,-29.68158316824195;-6.001365310370392,0.44091419576255714,-11.464553693535487;-5.191920392896505,14.221794662725086,-25.850849422573674;-4.428058921291378,0.6630888757384479,-33.35321685092209;-1.854962670887574,-2.9225397379847364,-19.018984119785717;-23.31019700146348,17.705683545695674,-5.847649404331217;9.529630983874107,10.436296101438025,-23.115741272671034;-5.630888602592061,5.499850873141522,-32.7141741537088;-0.5819998991455028,-5.4354911291886365,-15.73066961613518;
36.26609818585707,-62.344867497850665,-16.430975229673326;29.496633508079217,-4.0950279208821545,-15.083007857357693;-8.258726077346083,7.852993337035368,-19.911286908645373;9.826387478313885,-6.875381566945719,4.1094017831468515;3.6829387629203265,0.06522126886801168,-11.151196151430616;-2.9176677824707427,0.8165985052189495,-22.75350938910115;-1.8036376836425247,2.990340658277994,-3.618721908979111;-0.5811801871321863,7.923508107671601,-17.601969217580198;-1.337232314104708,0.5212583041057021,-27.42233092679731;-6.087257803056721,0.4170809402413657,-12.138546346572616;-5.184461451937951,14.643277124841456,-22.21176376503784;-4.415348426612389,0.6169182134737561,-31.14087242857361;-1.9239040545255792,-2.9222783409336603,-19.831021591186662;-23.327750031545946,17.719016268533625,-5.852052797657217;9.533282449980582,11.58107279663296,-20.66835066820641;-5.666359072286671,5.4911994646779565,-33.09517501767678;-0.6426313753903402,-5.422745578984419,-17.140428848024357;
37.63645350447127,-63.191059833906245,-21.170725362063123;29.777730690134863,-1.7391265642974603,-13.911167719008048;-8.301797459042747,7.852938436120316,-19.199982384448575;9.416843300762284,-6.796349118970612,-0.9815858165776938;3.8879360577007076,0.9051532995252367,-17.1461988940394;-2.905143235646639,0.7978442119931192,-34.47548718754385;-1.6938673862494327,2.9166108141132288,-10.156006507013748;-0.5286846507861696,8.046309389889535,-27.799984211312733;-1.3538446482261395,0.544050622511809,-42.79983706233525;-6.597699046311541,0.7773829599143331,-18.841052574300686;-5.13438152586616,14.247995729720289,-33.15039418394301;-4.598553030288268,0.8934183227843088,-47.58607885567187;-2.277880427568596,-2.649673226740713,-25.937428457322838;-23.318441988753893,17.711946175556704,-5.849717760725287;9.145886100957375,9.153188644742611,-31.68932608555736;-5.942966292266804,5.921752713302941,-45.49149502337695;-0.8819609284595792,-5.238803691030847,-23.904939857065173;
38.2205024468882,-63.30825282460703,-22.609859455764102;29.878518447209398,-2.3864290876985677,-14.301924650312506;-8.12944617180098,7.738135246663551,-22.316334127999955;9.257291011468812,-6.747947727032442,-3.0296871736874507;4.081818908839608,3.4632290749857875,-19.399270769199518;-2.9031927823233974,0.7909156604217656,-38.77580772652904;-1.6248445963989806,2.8751002111111084,-14.18411414957392;-0.46011454614866626,8.925816588915046,-34.61950470528763;-1.3626693538631784,0.5586111623499213,-51.48208836498462;-7.2261818991846924,1.1412779986734525,-26.668361577601274;-5.073819497012577,14.324462412940116,-42.472327120437896;-4.684995276315214,1.074217152534989,-57.456731263144725;-2.7372723782675474,-2.323521766917849,-33.603570794432464;-23.32717164384893,17.718576943652128,-5.851907701994932;8.856745805691252,7.309661558383762,-41.812585670049835;-6.210536328910718,6.336079915611747,-57.45078558680609;-1.1513270041150019,-5.089910746794556,-30.88670676775272;
36.43590262447784,-62.64286077319169,-17.34608311495036;30.21504687030806,-0.6121415297423961,-13.435481717825533;-8.254599952285785,7.810951001457813,-20.135956135606754;9.602378284399409,-6.808529879816628,1.2416045060584662;3.985175879307549,3.471040904389081,-15.902163082104648;-2.9093143473468084,0.8046481149673013,-30.196704809218698;-1.7374226267203843,2.937404100615173,-7.80954781311405;-0.4667717746859711,9.336417754275388,-28.38772415278382;-1.353491739153027,0.5405609433401442,-41.46522080367771;-6.746272970483685,0.7897544964287652,-20.42831559974726;-5.0621799120338276,15.043469342654694,-36.01950782248519;-4.603391457349685,0.9039003403895108,-48.451420277198146;-2.4666424573160626,-2.5707994836081847,-28.691016841778435;-23.316800071096825,17.710699027175448,-5.849305865501618;9.162032970551678,9.905364542800454,-32.11788736116444;-5.958644602209493,5.893029111112003,-45.4463452682322;-0.9026706613484773,-5.238678393247473,-24.27919562191892;
36.341658606262904,-62.31776183160786,-16.693384872520273;30.33900640297249,1.929725195433771,-12.100790843846184;-8.268097735278262,7.840157944391982,-19.745420981355878;9.755044812622732,-6.837549325696413,3.1753888973528017;3.9836427620991848,2.4991788624950337,-17.3657386691306;-2.9084664594577156,0.8030465000619534,-31.096833509934573;-1.716350003068021,2.9246945230327275,-8.970139033660846;-0.5122656939564171,8.067961244642637,-30.543785190567757;-1.3537647999220541,0.5400032085270484,-41.48961234852492;-6.691226994543338,0.7597264850991582,-19.732648973525283;-5.116053236745345,14.271965212564782,-35.11827550409571;-4.573144606805206,0.8388141448751263,-45.00002734561202;-2.403466981797472,-2.61040666591785,-27.715901204624775;-23.3111932641174,17.70644027509064,-5.8478993290621775;9.223141566498583,7.824409453921203,-31.3915328391514;-5.9607051282879615,5.832789095979064,-44.50583846815961;-0.9233699121453173,-5.248460302064607,-24.639396132516936;
35.90916240223302,-61.99700023063522,-15.16566723740095;29.964757371582643,-1.8312308581872125,-14.030780105230113;-8.277735557601703,7.853594946625173,-19.435129433287873;9.678644618065228,-6.872678898890126,2.401291716938042;3.9351088641842606,1.9208290383537328,-16.570839195669162;-2.906225376037787,0.8037429016788283,-30.790618100629025;-1.7227845352328457,2.9467898611431544,-7.982939443150444;-0.5014380081951804,8.69874739295019,-26.18509343884328;-1.3433202309546712,0.524211042377663,-31.486683564843748;-6.3059667250295055,0.46193821328974877,-14.388979213483957;-5.043838035109832,15.563722154511703,-32.06921775736709;-4.483904570032999,0.6881168434480291,-36.236527991673256;-2.1066825622914953,-2.8651164691098177,-22.28161537575582;-23.303617097762846,17.700685660320342,-5.845998754619703;9.258162388153423,10.99691756076454,-27.07801127031244;-5.719340509556794,5.529222673132387,-34.828762261390516;-0.7201247594944252,-5.4041493374454195,-18.77765484877869;
36.10079145664942,-62.130042476137625,-15.825083748046145;30.031939885530136,-1.0060921017919278,-13.593830858170387;-8.187635432571927,7.811755133268423,-20.961701809243042;9.609161158464069,-6.853996458405148,1.4396888349460462;4.078582540448877,2.6902397527726407,-19.6410017540781;-2.901292128421004,0.7964976662916188,-36.234990939741;-1.655378113074265,2.9048831229531755,-12.014275153543702;-0.45105999244955614,9.667255441706354,-28.30053959787517;-1.3551828283994396,0.5391133267445594,-41.49530235711864;-6.745684392711515,0.7624207267162691,-20.063629251374028;-5.059563079764321,15.542983263793191,-31.551553420316726;-4.546232627418688,0.7757926376052543,-41.74293222115498;-2.254017892617068,-2.75195724852382,-24.725080740748314;-23.31322645060143,17.70798461881641,-5.848409378879871;9.2946680027391,9.593499985567192,-27.287750264918994;-5.803102560012003,5.720762684885081,-39.94870456383105;-0.828580245536362,-5.334624797256993,-21.639323911763384;
35.1743135049831,-61.70844669593905,-13.002457521551204;30.427586670828763,2.3612357221571467,-11.894868415397184;-8.149448438449872,7.7792400221769755,-21.64330579521767;9.63545495313543,-6.8433661381686095,1.7440032863356332;4.00352627408653,1.0311023172710778,-20.31819845220467;-2.9030830825291947,0.8027109587772795,-32.63068654154342;-1.7293672420273585,2.9370426543366706,-7.972967198737577;-0.514166295761178,8.315946253181405,-27.158110186340405;-1.3467183500807252,0.5294863706521538,-34.93009670168107;-6.265179141844482,0.5659404791673427,-14.554674855802793;-5.167537098769462,14.140697817394093,-28.329100970512936;-4.465451238309245,0.6678086469932875,-35.08000593923937;-1.979631442736377,-2.86286929675576,-20.856783584005335;-23.305671194313856,17.702245886667015,-5.846514049984696;9.435532138931196,8.782725813295523,-22.836672585956098;-5.667560943418551,5.482187713567995,-33.313261680229225;-0.6961272317028799,-5.39371455236377,-18.478487079159923;
35.239858313343944,-61.84976807485558,-13.311976188378447;30.617333640399295,2.159558062588232,-12.057015142253348;-8.093787792055313,7.752149613071345,-22.614980237019267;9.480219199564766,-6.802965637593023,-0.16966956622478954;4.167714214140111,3.5530088340579624,-21.13478992351645;-2.9004112795536954,0.7982446354357494,-35.430870788382926;-1.696042018469853,2.921547557022748,-9.778487609621417;-0.4406084060945626,9.575260704271551,-30.748171812242564;-1.3515193918178574,0.5363195443109626,-39.175960303162746;-6.632163209399195,0.7073933232388264,-18.787325466777947;-5.082030644607847,14.981332880448397,-32.394111258823465;-4.514808840041355,0.7327337272019634,-38.89830859950992;-2.125095415929535,-2.779208584547159,-23.167576235033046;-23.305490387873228,17.702108551850934,-5.846468692466847;9.25670024715669,9.023169686976843,-27.726115030026993;-5.762006368819301,5.610516999927027,-36.96670988658824;-0.7670704573481169,-5.356666030688298,-20.26910111033875;
35.77028567806391,-62.15734455017289,-15.100997130529352;30.310520141323543,0.6631787315023442,-12.761644896545555;-8.180454988129561,7.775558005497772,-21.31671800056351;9.698666041133993,-6.85186150361291,2.6641180690959625;4.0557457317357,2.932996467741915,-18.55396492992708;-2.89910036495324,0.7980610246977079,-35.928218455592074;-1.67442397862711,2.91785959917731,-10.816603781809413;-0.47726259798792836,8.923008766329174,-29.35827073112696;-1.3542180018238374,0.535568344785601,-39.64268452207454;-6.739265411589493,0.7442021107055888,-20.020765259587133;-5.094326258069873,14.866582263077605,-32.39438387686359;-4.567860789159446,0.7714697216357889,-41.92617305390588;-2.294034181520141,-2.696876186045405,-25.70098029693731;-23.30782930759366,17.703885120809726,-5.847055439224418;9.206827260520685,9.79531108142551,-29.75833385603948;-5.863602572300544,5.720681661908778,-40.649401829103766;-0.846268312761302,-5.313305489997325,-22.267814919048803;
36.81817819064376,-62.36212257688236,-17.959961142589066;29.965804092613258,-1.5803440970921536,-13.898019942090968;-8.09084862647047,7.745512715027751,-22.69864939744353;9.585418367165015,-6.872572040137734,1.3140615190647262;4.05096159864252,2.802677128319268,-19.240704119385356;-2.898202814595022,0.7911091171286742,-39.37823103567963;-1.6066961076737478,2.869459613464951,-14.997351129098677;-0.4793649877064176,9.161634262969992,-26.94235475657778;-1.3521471249983263,0.5356483754027287,-39.05946034495396;-6.622349675090399,0.7054165339963319,-18.623084495753965;-5.07841919633355,15.272416285463478,-30.189313469077145;-4.528082013250869,0.7458751603011224,-39.88322464618008;-2.1328131962349404,-2.787746081897193,-23.117622202858588;-23.309480750084226,17.70513950395006,-5.847469723869832;9.295873908445467,9.821918699923224,-26.52202665808376;-5.719976479996544,5.572316425039399,-35.650045493421764;-0.7632254067157614,-5.362895850385528,-20.02188655893492;
35.63602762486468,-61.89411159541397,-14.345150074413322;29.851551862915432,-2.4214129681536423,-14.317441727062748;-8.154969276860694,7.786954584720772,-21.56028262609142;9.848603645106659,-6.8519436345683244,4.361840672680591;3.919129548179196,1.3267805465931815,-17.02564371828667;-2.903699732950558,0.8055108088335445,-30.815011656523506;-1.750078223467651,2.9578890946075957,-6.503677929159268;-0.5228820755698913,8.571854965754635,-22.95369691521447;-1.3447724466905704,0.5239618059455085,-31.93135987800238;-6.134357079832552,0.385591358905041,-12.379268817317836;-5.1040096100872026,15.192059992908247,-27.110474527584156;-4.461085687070013,0.6284998663790164,-33.141360389686206;-1.8700263518345788,-3.0142556244897167,-18.43263865730086;-23.300734269549036,17.69849595578595,-5.845275561731801;9.304009865854448,10.940700810233471,-24.655348976775706;-5.573135308342258,5.372121568074199,-29.52650076585336;-0.5838865247161856,-5.483395452564253,-15.191966000477915;
35.34949093556555,-61.925132884142684,-13.66341697091199;30.357944918144558,0.36357771254735827,-12.949545257539077;-8.201801883410477,7.818722022007836,-20.795562173230426;9.696351410644011,-6.793844324773576,2.3195212520574757;4.016363565242059,1.9158194948806797,-19.55197968541226;-2.9024829708621103,0.7950029800106674,-36.42774013542646;-1.6701108242663631,2.9089135399685655,-11.195523096276494;-0.5081897388884873,8.43133200029545,-28.20083901620158;-1.3460381774307482,0.5304818703625777,-34.74803802825921;-6.417919719426896,0.6394591169302951,-16.43406859647869;-5.143724951559695,14.135763272819835,-33.12847853725166;-4.493659432178547,0.7173548344480604,-37.66655445413405;-2.0088009440138226,-2.8437965592675583,-21.368775082653798;-23.313869773052435,17.708473266068907,-5.848570764223311;9.194421457439148,8.896187802222178,-30.42724049095433;-5.68061143196174,5.542417030500411,-34.516807175755496;-0.675464761384196,-5.411224871616963,-17.88440463527968;
36.12297906010658,-62.15302181520632,-15.845769997003025;29.81752996908187,-2.7850614123435613,-14.48671561384906;-8.126666759687884,7.783011560187532,-21.926781516012532;9.403044031774483,-6.816619340376075,-1.108250841410863;3.9313442018758193,1.5620728821482324,-16.833650100055188;-2.900104784562981,0.793217478779248,-37.5181166546745;-1.6657654686955126,2.902313601927322,-11.504920357606501;-0.5094846127998308,8.745748773976432,-24.43773472816483;-1.347949717963141,0.5330074974506148,-36.81620570716488;-6.4564061216015,0.6797138120537886,-17.011629126815762;-5.136600914847729,14.656622537246662,-28.602371811563103;-4.499316505471616,0.7044121327891503,-37.50342202925229;-2.0565694266236156,-2.8073115430125952,-22.19828534832694;-23.30493585670407,17.70168734762832,-5.8463295815078595;9.32547153919766,9.791859850940623,-25.609845585611133;-5.685133193624543,5.521408999020202,-34.23514946396993;-0.7072554652475007,-5.3939806714213,-18.695541086316044;
35.33516713872948,-61.94120195288955,-13.513668937283963;30.103777436459193,-0.8544234543950279,-13.5382839255636;-7.945976408080019,7.692845703529876,-25.016274438525407;9.479177648110685,-6.781213831203255,-0.23495362953843024;3.9450152194645756,1.8976940389258439,-16.396075788962182;-2.900305543510043,0.7934245038836306,-37.960026071711226;-1.641879200549656,2.897540079080699,-12.772371145201015;-0.4972118317133201,9.041059057997243,-24.05885287603463;-1.3483846941833697,0.5313548766246784,-35.81783167229233;-6.586339890309685,0.6497747958687062,-18.11081942684817;-5.179806399209979,14.140252457696286,-27.68130662595338;-4.509042759512275,0.7085991379912107,-37.71392705500986;-2.1664795024990005,-2.7693971766627175,-23.748507133590074;-23.31575414779535,17.709904577133408,-5.849043482786849;9.397108529641647,8.272896099051877,-25.066975418679963;-5.837566992017521,5.5967454669144905,-37.89830445535762;-0.8106698806837164,-5.3457680565535375,-21.27133628718998;
35.91039214003753,-62.09568080172425,-15.2198763719308;30.28221337323695,-0.35306187055338567,-13.324171775638463;-7.97643701854898,7.71486766141194,-24.475180367397492;9.390274707513669,-6.748772750380913,-1.403222260475076;4.109173501047562,3.14272898725144,-19.897221815894326;-2.89398229619817,0.7872183376548755,-42.61081679815999;-1.5778521612336802,2.8714874311979903,-16.117481244010914;-0.47445236223012094,9.196875703885448,-27.339788796208868;-1.3526428313486571,0.5383860802011421,-40.00114669210264;-6.751953042807947,0.7657821232751635,-20.09447700010588;-5.115144745156766,14.896469988432512,-29.363099383696156;-4.522106138414116,0.7428560027565042,-39.23152272850468;-2.23536261198628,-2.734465541778536,-24.71208631180642;-23.315116286201253,17.709420077774016,-5.848883467366437;9.332610494985657,9.682914477986829,-25.48419904751349;-5.825533822605104,5.615016580428868,-37.803557429278385;-0.8734777708978546,-5.314607275067637,-22.755081927701788;
35.79515056983172,-62.009378152044185,-14.89073534474369;29.838105764992974,-3.194362980613304,-14.733524026194653;-8.11807703370291,7.751575969112786,-22.357858240609065;9.499080703803294,-6.782115895483623,-0.06644287022395114;3.991102155245509,1.641142194741865,-18.863863686700032;-2.897322988999724,0.7874141550244902,-41.4089157343591;-1.5798584096467778,2.851176859678852,-16.55917989426879;-0.4716937954644721,9.405459782874138,-26.53726178594202;-1.3521300083643606,0.5423980197126897,-41.70156251510706;-6.803207386686727,0.911873493903447,-21.451651485494583;-5.059915080857651,15.455038910201777,-32.83055937942725;-4.513494668791247,0.8137995403964617,-41.779876776984004;-2.258877515239251,-2.6517672532238787,-25.639390583256713;-23.312071129261515,17.707107073506318,-5.848119552322694;9.033860819312375,12.486285862768185,-31.358510809501254;-5.664327487108906,5.611347210879851,-35.16475817185057;-0.8639326727420409,-5.299676193187971,-22.861681566173026;
35.32812954109945,-61.63376814683959,-13.202599342700696;29.79229937975416,-2.834122326363713,-14.506351652235923;-8.295581030148623,7.805851778669051,-19.576660020464768;9.334142568542884,-6.742271868626105,-2.1535730641743167;3.999759061075283,3.985869766161418,-15.170963378039366;-2.902652693360341,0.7953059680371013,-36.24478353367793;-1.6097348603792574,2.8789353767967496,-14.709534564664546;-0.44417886155539926,10.247327176826603,-24.432541353493658;-1.3465606007588793,0.533059540180809,-36.318847505804285;-6.4701437520385605,0.6781276263311067,-17.152010415012988;-5.0588104961504685,15.731550789188448,-30.886852273551952;-4.507290471428283,0.7747592480433603,-40.30355001747898;-2.1831896047210027,-2.713726774519237,-24.350306516697653;-23.310867036861413,17.706192483251694,-5.847817490945768;9.263388719341036,10.830094558392773,-28.649763773374023;-5.690021735531783,5.61434894994254,-35.82551668736417;-0.8027717410041694,-5.312070261960475,-21.515725960616454;
35.42196102317828,-61.87934377402226,-13.783789023522354;30.01020651687409,-2.2505741925040446,-14.264599515133737;-8.314253735977081,7.816558868669104,-19.236771173963145;9.608665234650326,-6.762377165229945,1.3047912044606416;3.9562910870518615,3.1947051529251502,-15.152453488972002;-2.9049432189942155,0.7986595251790402,-33.79146972429618;-1.6537512062659154,2.91705048073832,-11.7274403578883;-0.48946690733180115,9.072545353110655,-25.888512597969683;-1.348541661467472,0.537157630810287,-38.42337596509391;-6.859719688872538,0.8552804235120386,-21.747793773626853;-5.129725166093629,14.518566538461133,-31.364010576348665;-4.520271283983286,0.8128028720561175,-42.11864637593937;-2.3853437799840167,-2.5996365928799987,-27.501820508656;-23.309458760648432,17.705122801473333,-5.847464207549838;9.173576913589645,9.703732298423374,-30.71038612237685;-5.845120284183738,5.770396319193853,-41.15835078235117;-0.9395633318196422,-5.252496068659367,-24.83483903429456;
36.13188442617322,-62.298231312074456,-16.176391490153225;29.974894481502325,-0.9760535025151795,-13.582394943634046;-8.127574217144831,7.757739666353401,-22.218678437476118;9.442600380490909,-6.7473261122010495,-0.859241138118409;4.137335819742127,3.100332772656952,-21.82273091060695;-2.896864951973896,0.7884858918310944,-41.418911796108866;-1.588290223783069,2.8710878581533485,-15.829556012328352;-0.41384769322578024,10.198622539337139,-31.409199492230893;-1.358366389092348,0.5473705605486084,-45.68818364884466;-7.018000279716966,0.965096937821724,-23.797068655421636;-5.015882780956032,15.67590937024279,-36.553383346354074;-4.596674229057638,0.8741863193579181,-46.78758659339736;-2.4977880582262477,-2.5363758435284436,-29.314567268435233;-23.31757511522464,17.711287726020323,-5.849500294846594;8.926065592677586,9.171593037568408,-36.503292026973995;-5.900314730861403,5.84837749333353,-43.473992094625274;-0.9477410895866362,-5.235871070208426,-25.287233975730995;
35.4293433153698,-62.052565115500926,-14.07285111494994;30.010964864783777,-1.767597125146865,-14.01240954479127;-8.106869872808703,7.7192348309992544,-22.645587963683628;9.264837376166538,-6.686099564079387,-2.988120717403951;4.073900270002332,3.6713594140841006,-18.58656418746768;-2.896607811793005,0.7868168636126068,-41.21644527162898;-1.586088803365564,2.872620700364194,-15.716658153051052;-0.45977513154253674,9.597994638015972,-26.80382882507701;-1.355032455450099,0.5481706082330264,-44.95767674529647;-7.032856246987873,0.9723787094929122,-23.970868914881237;-5.124953781558799,14.55801890698284,-31.158687828921455;-4.569093097620499,0.9149765680655007,-47.494501669576955;-2.4848923033249832,-2.4910857029385496,-29.507912014382004;-23.306156227739756,17.70261430261557,-5.846635726580826;9.220628423763243,8.979332796806165,-29.783193550844008;-5.8993894518902605,5.930113801891412,-44.957004861903584;-0.9911233434641263,-5.1775574215743365,-26.74358757207657;
35.68202173185463,-62.07689038933351,-14.663596418031501;30.071061701095946,-2.600996259790063,-14.468498190050205;-8.153317592069056,7.741611906099764,-21.865048192049727;9.26477604005774,-6.746461921556724,-2.839222376467984;3.9817366927409537,3.7773115728637863,-14.979538019670855;-2.8990788248587878,0.7873925002592516,-40.400593029457646;-1.5495838444892305,2.8610852248387824,-17.658268076830463;-0.4918169633908121,9.108950363995634,-24.627096542544816;-1.347158693437708,0.5403051117249622,-38.706303109472266;-7.119066322343442,0.9162401828737833,-24.535420215696938;-5.1460472518094695,14.115938771794056,-31.486107699070903;-4.479368339674725,0.8151000437726142,-40.32695693776108;-2.5544574164047806,-2.508171443531788,-30.201298163784116;-23.310899851451108,17.706217408169536,-5.847825722888841;9.258435296638643,10.011254392685437,-27.111912959467816;-5.764793631213005,5.701302697600463,-38.47372240203121;-0.9510673474917862,-5.223519057889213,-25.466702365268546;
35.086033240927456,-61.90247378241266,-12.922439216475356;30.03506892190997,-1.6155128424134555,-13.92443787357084;-8.005160858207427,7.734072765968466,-23.895463173687503;9.430385725951657,-6.730743655811154,-0.9577929858780941;3.9985833845728456,2.24318501313562,-18.168971808187738;-2.8954651034992644,0.7913546360916518,-39.59574833822252;-1.6335119770634996,2.893583402210787,-13.111488495661929;-0.508707310706881,8.688136899551248,-24.871742112874717;-1.3493733405760149,0.5361662384777899,-38.32559447838289;-6.558359384456591,0.6972728957649523,-18.080088730365777;-5.136897454863632,14.60107739631816,-29.1658102423586;-4.51557539393991,0.7731446035003985,-40.29656461524631;-2.201454717827199,-2.7167185008358974,-24.564858932016033;-23.30276659001243,17.700039641709235,-5.845785394297655;9.29195291220096,9.191607707865257,-26.666604964631674;-5.730272813606408,5.610547518172857,-36.45193357123665;-0.7993066208411248,-5.328808239294254,-21.260177340637107;
35.64562711365389,-62.12479018560669,-14.634234161362032;29.667813611838312,-3.2713450730137192,-14.695938820993492;-8.103498841425251,7.78849347048315,-22.28172008764369;9.451316261247017,-6.83530206309153,-0.4891935606949666;3.957304082496616,1.306950884923094,-18.376973803490724;-2.8962591853023003,0.795941980884549,-37.82435336758295;-1.6341941485339688,2.9012714541877758,-13.057119768267112;-0.5164792648388241,8.46491574122764,-25.430372769671596;-1.352425774092848,0.5333296008089585,-38.161345760319854;-6.477399660293265,0.5910002753098254,-16.88060376266839;-5.134663352402874,14.637554072756734,-29.27613804942296;-4.5159069524220214,0.6967998868837603,-37.49976021956039;-2.086935784193104,-2.8445803434147585,-22.345594968026326;-23.308813851183444,17.704632948776073,-5.847302424084337;9.277958216286923,10.025039609788754,-26.980984597746453;-5.703454924193444,5.474564766015993,-33.6024699076492;-0.7032315488079804,-5.413353300749866,-18.400846201901132;
35.78172648879362,-62.05192977695898,-14.889690833098062;29.836081906105345,-2.535595929518844,-14.367748749274652;-8.055791749217255,7.7603294850035,-23.210794788044424;9.535361401817587,-6.828561992269456,0.37354442596460746;3.9323228582742957,1.445487360483822,-17.047137699331085;-2.9048319723560665,0.804853660720923,-31.909416587388034;-1.6962156396485693,2.9463346072616297,-9.386743116687287;-0.5265351088242249,8.551863925093663,-22.369329029919232;-1.3457641677047216,0.5223246868585119,-31.232550443646762;-6.238598089529612,0.38424697002378566,-13.47392553725948;-5.19236685253758,14.13666249268225,-25.165945007227563;-4.45196912273031,0.5829334446536499,-31.00043715201546;-1.8665113047940924,-3.0115108004477125,-18.600303043070756;-23.319406606769164,17.712678868691192,-5.849959747009864;9.342225122658418,9.309222750716257,-24.900452808369838;-5.635258784603381,5.354089795171103,-30.312885701919047;-0.638416421691569,-5.453732143258502,-16.70145213624144;
35.84000496789344,-62.19892691636899,-15.358530799190332;29.707876351669903,-3.3533393178241555,-14.781101721672295;-8.044243578818566,7.72986347657421,-23.413043900622913;9.118814328287693,-6.742967977539011,-4.720923290744486;3.9983929604354813,2.4028864991363506,-17.74095660730664;-2.8965127772638946,0.7891687212011437,-40.618818516732674;-1.5674291010412458,2.8658915661248336,-16.79873665238999;-0.47992156123551494,9.330507777207668,-24.722450441349004;-1.3483944904008243,0.5356563759645926,-37.80595205951627;-6.739347134541322,0.7466841417638697,-20.067271712015575;-5.104321532630104,15.106356294355942,-28.36864524332412;-4.500938921968628,0.7423329938781813,-38.678166495795644;-2.2762085858907914,-2.7030760232847264,-25.514297256135357;-23.310110711266518,17.705618002408514,-5.847627757374796;9.297460132775088,10.635689507938736,-25.38043946954587;-5.689234464954128,5.522812454442276,-34.26730991688094;-0.7889409667167285,-5.34391590596717,-20.88547020471665;
36.687553947072836,-62.64228612538306,-17.977777100884715;29.330459627089237,-5.636353298888816,-15.912006807440358;-7.954220919275596,7.681894461409143,-24.912184196271635;8.97402531716564,-6.728834327324336,-6.383503861222065;3.977342764545105,1.5365560806045695,-18.864107306712324;-2.8893843002460593,0.780484590044046,-46.575109358907895;-1.496413357418634,2.8290354988283837,-20.808408535038225;-0.5028241849047773,8.784447828759374,-25.291296898776988;-1.359304291873768,0.5460167097806072,-45.51725579941129;-7.19721318903636,0.9328281278037763,-25.286054489467272;-5.121819048408629,14.781001181306909,-28.894409219343625;-4.61831997017718,0.8479715551197047,-46.29163863794409;-2.5451207793135002,-2.577754766296083,-29.462982984231413;-23.30826036384046,17.704212537410566,-5.847163574981906;9.382800686779603,9.899424577003572,-23.91277356229478;-5.951479647390748,5.696074079189858,-41.39736306264262;-0.9545083688345748,-5.282487823781874,-24.779238289557373;
35.11145838016835,-61.75070633645702,-12.784140942444653;30.261526001766565,-0.2192091014628872,-13.239267296286737;-8.109351496829179,7.794002429304376,-22.162518552682364;9.647741508448208,-6.82377815290086,1.8765352084975488;3.991075250090609,0.34857336233017194,-21.49177765025116;-2.902594831052766,0.8004577310710135,-34.34330352611547;-1.6667522581944803,2.9083665028460373,-11.574791391568164;-0.5598709751714246,7.421856127365782,-26.46569013415689;-1.343323881117186,0.5226976412940029,-31.140647472536664;-6.09422375050386,0.4244953537111831,-12.277611290233118;-5.226862409103702,13.528496270840916,-26.815830008136682;-4.466359477380052,0.6100273476820551,-32.987686882473355;-1.7939914444259621,-3.017609764642589,-17.67966140152747;-23.311900099117857,17.706977164454706,-5.848076647309116;9.46018943667643,8.266916173653366,-23.354500378007465;-5.6523012042386975,5.36498923022545,-31.140773162538764;-0.5885510020990355,-5.470576810947631,-15.546351202099817;
35.882743218291004,-61.94793909470699,-14.978628437159443;29.737176755142134,-3.221822074091342,-14.720171399006544;-8.239459920934687,7.825327804989223,-20.32543710783619;9.569191985839437,-6.792903510603613,0.7872511243325006;4.006262235902628,0.7845467797566213,-21.376455936556596;-2.9029728287263805,0.7991816579155755,-35.09585114428082;-1.6315883535600053,2.9044184914618563,-13.211994084691183;-0.49769977241354635,8.844445888516049,-26.141500312056746;-1.3452696055887035,0.5250929916891297,-32.235571794943645;-6.492410562966232,0.5365963054968502,-16.583029767824865;-5.099345598308874,15.113669626774538,-29.698550085666714;-4.462726510194298,0.6353534254982598,-33.43187154499444;-2.0502365838622634,-2.898813260787908,-21.483375771579663;-23.3199358302634,17.7130808500096,-5.850092509227572;9.251847013128216,10.922428258249056,-27.32211753632988;-5.720387730621302,5.474528829524138,-33.77299473234578;-0.7442226181645345,-5.402607688291582,-19.324148027915975;
35.14208476540768,-61.79536751902433,-12.888115444812533;29.952910401365468,-2.0999489027117604,-14.16936849288885;-8.153536825012823,7.803875133877651,-21.590778870439358;9.522990985194435,-6.775919801395804,0.17290982649973455;4.028656757224039,0.7172385047227577,-22.010127458351807;-2.89763749912619,0.7928916404334917,-39.30674543254839;-1.6232085805124148,2.9013979974004718,-13.535018122598084;-0.5218511351023751,8.194416488562691,-27.1242034856361;-1.3545653503570823,0.5369519798342269,-39.93152740720122;-6.797243436469278,0.761638402899788,-20.644078402496845;-5.153769616087844,14.211889802553381,-31.030423641740686;-4.554250153804593,0.7666475221111064,-41.196426743827466;-2.2969973397222843,-2.686755978834427,-25.950482115435957;-23.32064317456295,17.713618126220336,-5.850269955238569;9.187573302886523,9.93658834501591,-29.806880767167893;-5.8609219213498855,5.6756835133715455,-39.69921210532344;-0.834685274178826,-5.343771402540192,-21.768933203310013;
35.10250531221047,-61.83547490667399,-12.730485956860994;30.080647894565832,-1.5893929075509408,-13.921568610042899;-8.024809190419731,7.7387755350002765,-23.714239647708215;9.3537021773912,-6.743053626967404,-2.013247265737917;3.9920707817098466,1.3377961837048864,-19.48082532898614;-2.89823733391529,0.7913518183117311,-39.78671467252371;-1.5821442086780837,2.87932366009543,-15.866161730514667;-0.5123946685515446,8.40335645286796,-26.995099805216437;-1.3520890564019576,0.5353491045493444,-38.56068984039165;-6.826919967161101,0.7900567816021083,-21.044074020380915;-5.144508314242926,14.24482425578603,-31.748299249030723;-4.556749492044667,0.7422446357537177,-40.23483362868446;-2.3588261891772317,-2.66347791220474,-26.761743945390577;-23.3196749064594,17.71288266059374,-5.850027053284672;9.260368847407154,9.992135032091626,-28.419292942307617;-5.893683449850904,5.643555702086699,-39.34462303941134;-0.8671628826212197,-5.326740512454617,-22.701804102430746;
35.47379028398741,-61.8732661470972,-13.798780278665363;30.080114533875047,-0.8050917105132381,-13.513632688498214;-8.021907023182798,7.744252706971673,-23.74713772482272;9.460823177773957,-6.788167164946716,-0.5216906200917405;4.008563325958536,1.6856651248358105,-19.205702904172746;-2.898951500013472,0.7931747886072197,-38.688506188027965;-1.6110796376821404,2.8870429182715873,-14.353401219055534;-0.4938409902410787,8.717374893058512,-27.84106669778891;-1.3519695585133875,0.5337087536769436,-37.86325774489094;-6.698063330397143,0.7183344567979356,-19.426339780691674;-5.125643118880398,14.441836195054423,-31.549941042129042;-4.518571022504263,0.7090442902192315,-37.97613625874841;-2.2358141792724444,-2.7451685305437055,-24.745755381369992;-23.32023994240528,17.713311843909864,-5.850168799496046;9.226028640029428,10.14549809585982,-28.024464170856582;-5.841960972561426,5.59995791525663,-37.94351032273557;-0.8103788914326374,-5.340923875528773,-21.46194245642283;
35.246213434796935,-61.91600150624054,-13.324024127524297;29.957898783429,-2.1509670232919493,-14.204352998960127;-8.109613572675803,7.775936475970316,-22.371551498585617;9.587448454621418,-6.834958448560147,1.0798542058445353;3.91030867645622,0.6751467250351936,-17.70443690071846;-2.904276197612212,0.8033158485244211,-32.33321004610611;-1.6656304408539289,2.9335982941968526,-10.874907422456147;-0.5366886097965798,8.08641178619755,-24.728952287138696;-1.3442235609569402,0.5239917887541532,-30.950339852614675;-6.558162842808632,0.5764786926544124,-17.332030304187885;-5.114317975363954,14.866981086508927,-29.11710148034959;-4.441526108146019,0.6027593754716011,-31.119032545967542;-2.0972341031757034,-2.8801970462038056,-22.124067225106604;-23.319869754635793,17.713030661065357,-5.850075933344436;9.221229238962383,12.766351763150524,-26.701523466242623;-5.7281308551674135,5.413352071983115,-32.484570267568465;-0.7412720810194194,-5.432902631872265,-18.984205346715598;
35.15322476722999,-61.81648245973146,-12.988173800616808;30.002392173434625,-2.014464343630077,-14.137634874082488;-8.088690893844804,7.784816126725981,-22.471749123411183;9.4285515633487,-6.7835452624945445,-0.870016848665707;3.9863119597108905,1.1290050721082652,-19.692492281727393;-2.9001757700607675,0.796333147949361,-36.196566636751065;-1.648505724156688,2.907437876004276,-12.231343149739951;-0.530246736336567,8.138134722881798,-25.235251517751355;-1.3426225172887372,0.5246700100638274,-31.375890612107394;-6.31500704907235,0.5384566935017295,-15.00410461318972;-5.07009875658719,15.336595919742921,-30.66522727395743;-4.4482953210429566,0.6377985730701439,-33.12086289013501;-2.014887816776542,-2.8685976798762396,-21.341815691048662;-23.308364043960456,17.704291289528957,-5.847189584414267;9.206201945298774,12.438564503065274,-27.066589897018215;-5.67813281990592,5.4293639260809385,-32.50401952785325;-0.6861318405502665,-5.416795579045694,-18.130397235877563;
36.11898760336226,-62.4959077026667,-16.312961107126625;30.334498078254484,-0.1906926192235546,-13.245464738802772;-7.823767331685903,7.647147784671704,-26.900873119193754;9.048318952667799,-6.682439621011422,-5.708119564112141;4.10079441883473,2.6132828843777927,-20.52129171042312;-2.8906375093934824,0.7778676063765205,-47.65827419468101;-1.532121131984543,2.8377065709465894,-18.950589020585436;-0.47885454405144495,8.739757455527444,-30.891062481512176;-1.3668003545470386,0.5600443300031349,-53.50815477000999;-7.33805481642646,1.2065971941596692,-28.080254547836784;-5.09807233636748,14.501586123747982,-35.51485884763454;-4.676323467035142,0.9940675447700374,-53.503061668521006;-2.6996968164016324,-2.339916415193453,-33.13337835646015;-23.313077408586327,17.707871411245673,-5.848371989858704;9.049830176520457,8.101623486916244,-33.80108789459467;-6.144270634691224,6.075194519595149,-51.24814582124019;-1.147405512509989,-5.10632458540411,-30.761978570931927;
36.70928116513793,-62.535444318025704,-17.94220690764835;30.360471232235373,0.716728677001982,-12.76448486052501;-7.779647981969819,7.605501328806656,-27.727278583963493;9.01807784844603,-6.591260124075283,-6.444073458419209;4.269440320559278,3.4784724865450616,-25.550267584443002;-2.890060753790907,0.7764841252870217,-48.446952778681535;-1.5257030437926138,2.813351349518089,-19.890482961022126;-0.4679103167630261,8.769170677631886,-33.01922617707944;-1.3572788701074905,0.5488434141584715,-46.60631138026469;-6.817454762182605,0.9227602561623975,-21.7765609425413;-5.097626259520099,14.379910357313978,-36.561470546888415;-4.61922702542094,0.9186900758005087,-49.36303844867215;-2.4605269220005437,-2.4624125472116063,-29.58877120146421;-23.303654948898867,17.70071441083815,-5.846008250042318;9.120061561454623,6.9143915289962665,-33.06282879525291;-5.9442507174688375,5.840955242464414,-44.11341994206125;-0.922838265214652,-5.202093123236701,-25.27803798403777;
36.101252843795336,-62.28232107117085,-15.98449381714365;30.31831142107178,-0.7645040803619138,-13.556114823394454;-8.011963364097685,7.710714810024094,-24.010075957383005;9.153748621954355,-6.628671258871317,-4.7411676431837835;4.2062570365407685,2.30572759738468,-26.15249601485457;-2.896791096135581,0.7841076305672702,-43.22371670345474;-1.574118046751331,2.8448714132897153,-17.150017172774714;-0.494772901321572,8.483923404233858,-30.082660893749914;-1.3476888676867078,0.5366132171387926,-38.168843577718775;-6.489215863567253,0.7769888750930178,-17.97698981939814;-5.088419666203671,14.624139628710694,-35.421871604026315;-4.540343566872989,0.8034688699059007,-42.52276507131439;-2.256286431843241,-2.610407906619053,-26.109564894873238;-23.311937601580784,17.707005650131016,-5.8480860552629235;9.253294461644865,9.645941074901888,-28.63672029097474;-5.797447018105931,5.612114775075903,-37.57009140173573;-0.786881065808454,-5.300722332356372,-21.490721056431692;
36.13549603300042,-62.34267231298798,-16.21485077398982;30.671651574146864,1.1891582083643828,-12.599539749262409;-8.246639729955632,7.8439357281470015,-19.98572261693312;9.507446043892653,-6.796644421876963,0.011336147379812091;4.091005890681082,2.3407153270748613,-21.582178667132535;-2.9010762312786813,0.7940318709328948,-37.40436370241562;-1.6273268943591166,2.8999499349283737,-13.456859231197418;-0.49430540284912544,8.449509116231866,-30.307541799524454;-1.3510527219820558,0.539119546633047,-39.80337512861694;-6.856976185079005,0.8606890152637462,-21.913176464488227;-5.088949617795389,14.489518453200404,-36.48770311626662;-4.567688177521811,0.865361567133393,-45.3824920257508;-2.4351029825907946,-2.608742364348719,-28.051162090635323;-23.311014675732917,17.706304625038754,-5.847854527971001;9.135187051550378,10.050494582783433,-30.766635124804704;-5.9051446864155475,5.781162160713974,-42.28891137003578;-0.9585759464523677,-5.2283214574833154,-25.6287327075552;
38.31087874980397,-63.14405861927657,-22.73321006926841;29.217235493695117,-6.75650294944593,-16.476215734232532;-7.822534169333507,7.617000356940879,-27.075156513574633;8.6590445388577,-6.625652194646112,-10.732828403002665;4.229204642886853,5.072000075085067,-20.859444347774126;-2.8846671244493858,0.7737151021236592,-50.97151355030198;-1.4398560316237738,2.8116156755283557,-23.588033016462518;-0.4725435948974741,8.898364469742257,-30.975977225724968;-1.370725640569424,0.5623869600779633,-56.05315324971574;-7.4982981362361,1.1192205153450487,-29.123403638367293;-5.056722519580499,14.937816167794113,-36.25998462286838;-4.749515499310813,1.0172758666245794,-56.68722098086585;-2.81586821432103,-2.319931853841147,-34.68462007859224;-23.308768705414263,17.70459865748831,-5.84729109871308;8.99439640457392,8.303497354443726,-34.996389114486746;-6.236157810042269,6.03717565588864,-51.83548026721895;-1.1769281642746965,-5.0986784283414615,-31.362466916592975;
39.69046983048864,-63.95757236916308,-27.341791594227757;28.403434892105967,-11.519357531064703,-18.818775667342987;-7.78067466419686,7.628956113686334,-27.530508670072813;8.637050688345456,-6.7442059873263664,-10.453454246977582;4.076910541829507,4.103798729359171,-17.323941958294693;-2.8790299658394245,0.7735975707481584,-52.152265862695565;-1.4287468856813044,2.8254748080070655,-23.54254243211877;-0.44325297934437363,10.161686571035867,-24.730515945984724;-1.3716545213030542,0.5598441322217151,-55.33368882072969;-7.42878757571235,0.9983208092729929,-27.75016233129026;-5.0338518657387095,15.607190091696644,-32.90229536487745;-4.755284534713471,0.9939870565101668,-55.98571041704381;-2.706552349856923,-2.474141804360144,-32.061659591169715;-23.3019331698182,17.699406602263718,-5.845576320598821;8.943375359019319,8.36570077467344,-35.65182426118441;-6.160340706346207,5.933376532097596,-48.96701370454082;-1.1005172549080287,-5.1933790679781255,-28.6565112460866;
36.491261252888634,-62.63337297006664,-17.490250822677382;29.894044804660144,-2.6561659415685024,-14.45783657695153;-7.8357358878911745,7.674367922890011,-26.560263939850422;9.145003837319333,-6.790164518471612,-4.319283719266551;4.064914658415004,2.0538419611578185,-20.678479912550735;-2.890382022753245,0.7895823635197281,-42.498032471348345;-1.5806673288528272,2.871636426173647,-16.16935641478743;-0.5120064051269548,8.145357545028062,-29.346084687392384;-1.355459370876942,0.5391071799231961,-41.69446825326488;-6.774911858307889,0.7070051508491172,-20.233019197516974;-5.179283173041474,13.529663929442597,-31.95295464314121;-4.5735192840845675,0.7547209837078118,-41.34891059963484;-2.233661386102848,-2.7344253765897593,-24.86890865371948;-23.305930446181144,17.702442806132712,-5.846579086501737;9.135151555532767,6.949373779393038,-31.52392242161985;-5.85998151558801,5.615343847338067,-38.57104191702781;-0.7924719487732327,-5.3380870627115495,-21.070489256257442;
38.03472663377939,-62.79864152009464,-21.49537993667894;30.291041656125696,0.9016199899539878,-12.640690561328777;-7.820382274059429,7.662525739706285,-26.885177781648455;9.186772061087897,-6.841625837428216,-3.734627555616565;4.265510464166379,1.0119104668542513,-29.416391425583267;-2.894386576134534,0.795132789144668,-39.43050769590699;-1.6037805722969563,2.900240816596534,-14.62997638852685;-0.5746292885065353,6.352980704837294,-33.356875296334785;-1.355279106321179,0.5300594763477466,-38.15320514021567;-6.430280592235575,0.5264277027351231,-16.325316156733674;-5.266187179359175,12.147520440360363,-33.492523386466665;-4.580006624361752,0.6957172457926278,-39.77962246294873;-2.037888938018909,-2.8747683425191477,-21.76124927080787;-23.311821190471886,17.70691722795984,-5.848056852105358;9.218121221662743,4.890743132763442,-31.191946431023343;-5.920715325570013,5.586151999479168,-39.537896285737546;-0.628213945537181,-5.417448969562055,-17.087802680374057;
37.98028868830763,-62.807501411926154,-21.415315772517317;30.383795707612546,1.311067921089802,-12.448286196880053;-8.07628266672047,7.808580139845884,-22.535108642088257;9.356085532803144,-6.8353122349505755,-1.7838781044039735;4.317910896449032,0.8182756835508522,-31.906534185296177;-2.886600442096348,0.7840351940682562,-46.91806000048852;-1.4842357970413593,2.825719635365754,-21.719685397362003;-0.5664522878334438,6.278322532299644,-35.61477181282593;-1.3633016573653307,0.5417819088347523,-45.43997232038183;-6.9643336100421145,0.8163927360998544,-22.85987669379403;-5.247033717230348,12.180816423711637,-35.63922967622053;-4.676464999381452,0.835300722003697,-47.91390614914453;-2.46363592878749,-2.5585073697735856,-29.085746857260848;-23.315942527356892,17.71004766425185,-5.849090740115014;9.307598994690776,3.414855774825116,-29.183291305591144;-6.115605012356603,5.8173762608189135,-46.634082797007174;-0.9436584092499299,-5.226259528592618,-25.640516423376948;
38.906987605773445,-63.35064476390458,-24.34776051839868;30.657311983125595,3.398370289998114,-11.3960387560725;-7.889920498337904,7.6836346902710675,-25.995038139352083;9.378961170702746,-6.806129401793567,-1.6241788329931266;4.387633117615161,1.5683468147250863,-32.89037519101738;-2.897299191553294,0.7850210277452948,-44.49219652707946;-1.537459338832298,2.828199162432471,-19.487667834977174;-0.47184757035587205,8.095488537548205,-39.20547265906139;-1.3589812392351643,0.5473047104883264,-45.64665352206723;-7.150018564197635,1.194163997058704,-26.61208195827533;-5.0553434570359075,14.67913107160087,-41.43208633042317;-4.6354571691952895,0.9208803476258361,-49.98743436169161;-2.4838926348151102,-2.39440252096898,-30.414981512451163;-23.337660130214513,17.72654366398682,-5.854538867705107;9.006404659524842,5.165371229395653,-36.89189740779171;-6.108259886289825,6.097493473786788,-51.715516123588095;-0.9983102020243911,-5.167251698352639,-27.133407223632027;
40.08846912711459,-64.15491629169378,-28.388585691987814;30.130862004322513,-1.435444049509451,-13.874973539501353;-7.582117525393824,7.508426111249011,-31.198615026528252;8.96492249584132,-6.658269739654355,-6.964197162732979;4.32420062225346,-0.5878716839292394,-36.06658407153675;-2.8805696089919075,0.7634144559670795,-58.98597975596942;-1.392531213322622,2.743355796737465,-27.91966747172574;-0.5776607099458322,5.3103502929571755,-43.833047540388094;-1.3809280694313824,0.5742957321373168,-63.82348284234001;-8.017000974780172,1.6543642734565622,-37.172790672276754;-5.221606862254069,11.226438870039507,-48.197816431146954;-4.8486388044996875,1.1571077684201658,-65.0988847032252;-3.0940324100901546,-1.949340749658173,-40.987077620250325;-23.336003322230965,17.725285205388406,-5.8541232370599685;8.77718124979373,1.5414127992986375,-44.51954751402551;-6.492006342133342,6.519782010552426,-65.03587664834735;-1.3533445084193105,-4.948173067415856,-36.65780093162048;
41.113585741210045,-64.7337957401642,-31.90529331303826;29.546799104967295,-6.116868113781575,-16.23695391081106;-7.260505924587412,7.363944644970586,-36.207379664743364;8.057644870969659,-6.477745295354934,-18.257687981635435;4.315981897405366,-0.6931225869299255,-35.72566255825948;-2.872664286806071,0.7481065190233099,-67.12005194326535;-1.288884930436417,2.6579835112994035,-34.40884160508128;-0.5597083573626475,5.525531216358194,-45.60782026941061;-1.3913628615084732,0.6000687252107914,-78.4810492644136;-8.704576647895204,2.1921848279665572,-46.649502194473044;-5.2042941680386114,10.954189624591475,-53.38950690745813;-4.971871177442846,1.4185581096071374,-78.94659786351758;-3.631241119568776,-1.4827403190924173,-50.720269372991595;-23.316588077480095,17.71053800357346,-5.849252684297366;8.489438143139889,0.42172336647921216,-53.077382800833846;-6.751755693430039,6.967766468835312,-77.6113153083843;-1.6534703624328082,-4.72187976517639,-45.11116461266776;
40.130393028168186,-64.2701671385479,-28.922843812396966;29.66148062668155,-3.881143030887104,-15.063200415803047;-7.576628783279477,7.508358541686145,-31.08945696532349;8.08121683807778,-6.466750731673459,-18.06428506840206;4.3602024674932744,0.3526991203125203,-35.18630251576211;-2.8745013897969716,0.7488221172952257,-66.05765617431474;-1.2505955236588813,2.6290744421691348,-36.79919417466021;-0.5127808477706574,6.580006589195591,-45.72483145633659;-1.3886929546627513,0.5954085148161223,-75.7946146824738;-8.718390060502058,2.1677266197592804,-46.671775814538854;-5.136366835640945,12.110516310388721,-52.30247072091979;-4.94343470157986,1.3706024420864849,-76.26201645219612;-3.630693813712053,-1.5484134273812924,-50.139517852757926;-23.312976964044182,17.70779511677,-5.84834679211076;8.515204484392966,2.4356424117776467,-51.42632316987208;-6.716891542959534,6.89186894843214,-75.597620437505;-1.6683342759500146,-4.723988299476519,-45.438758706218906;
38.8990673954146,-63.269653565157085,-24.43243712430737;29.79725332643638,-2.7264784204427555,-14.473321114467195;-7.485604697660052,7.410468495384885,-32.802904195456584;7.949245501402032,-6.2729066869165715,-20.163246133294855;4.499587414240281,1.564222439993609,-38.41832063053217;-2.8674278045095223,0.7354289581409343,-73.42833399885792;-1.139551443384878,2.52331918711859,-44.201823218525064;-0.468567752678948,7.077243543447155,-51.43787263299651;-1.3905020846533738,0.6014550261568036,-79.57227460499341;-9.170528028562215,2.731131672701552,-54.27517182392276;-5.05959158856115,12.916221561369664,-57.93332641504799;-4.952691262439118,1.438018791401014,-79.49406199470373;-3.857373496571656,-1.228228918772362,-55.27397707469254;-23.29348292448761,17.69298806492829,-5.843456472702919;8.429873540684834,2.2222383318107837,-54.99370690655977;-6.706900630735645,7.030378367894551,-78.43300970764508;-1.769165398543154,-4.597461949716292,-48.84828692094097;
39.4189753868163,-63.210556954953454,-26.8904329666514;29.59120578264032,-4.378763974369341,-15.26629252442966;-7.353991120804291,7.398294349557811,-33.17161256953937;7.620602616208991,-6.419271759607153,-22.27633497208036;4.305606691511802,-1.0746034431862983,-37.336585696533696;-2.835281462492021,0.7099877520732362,-85.02732247627867;-1.0270486909689078,2.4510380488102053,-49.64429815296031;-0.5329339073906766,5.804608405291959,-48.083910744837496;-1.382813015895838,0.6042955799203742,-82.98611873989441;-9.026791638629517,2.495616528523901,-51.76918097627364;-5.069640659667087,12.16014798779152,-54.702467910297976;-4.96763001659379,1.529166691092058,-84.30615040564932;-3.94772172901949,-1.2223614435481416,-56.0029640769799;-23.11933165759388,17.56070830682679,-5.799768487051886;8.398279712683815,1.1505479992312049,-52.75745077386554;-6.748669042868695,7.184005996836397,-83.085953779397;-1.8737810482118873,-4.504035736644235,-51.44182733016177;
38.671976907987315,-62.921916067378746,-25.341197304221485;29.02782445364655,-5.31249781764754,-15.564350335712692;-7.525240422389227,7.454105857379086,-29.876960661904878;8.8306590338268,-6.670955064235083,-6.676290955517537;3.9000180510912874,-1.0014695714303303,-22.173766760355488;-2.853296324837012,0.7667646547155582,-48.73459276703531;-1.497585745188358,2.7833220374688703,-20.04906684886836;-0.5963497465071937,6.561466527159683,-24.877208780686246;-1.3464645722022361,0.5467026310759003,-49.61630405658815;-6.8602973474425974,0.8249672579424281,-22.30081506524063;-5.198380125608241,12.678224393496443,-26.814662779351764;-4.635420877676171,0.919345150974686,-51.46101234495446;-2.478848254236991,-2.5764168411899226,-28.602887694325208;-23.02646767693613,17.490171783510416,-5.776472416188774;9.273592623472032,4.587693711621969,-25.68988677295869;-6.042221020919375,5.825493805385936,-47.510197264543166;-0.9329030379643942,-5.220153348592014,-24.391151692036846;
39.09195572497074,-63.75640250762353,-25.540001746156822;28.999838039297455,-6.941670426992235,-16.508218528070262;-7.662033199111947,7.4950301362307625,-30.138264163941233;8.660085633064414,-6.703229507003996,-10.260737349228759;3.882869932447842,-1.032663037463516,-20.504654560498825;-2.8928033266175883,0.7819294401746375,-44.9581466795109;-1.527297587294106,2.8420245943569875,-19.109252130442577;-0.548131316515605,8.08871894661697,-22.707061484953414;-1.3590864204588353,0.5499273550441389,-47.03346359010872;-6.924497344338969,0.7821837462655649,-21.97581361386579;-5.146449814177753,14.60401421553926,-27.192644402467717;-4.648034096035127,0.8831520235611443,-48.502431415102926;-2.523894434392717,-2.6176525953470553,-28.97951446162571;-23.30755031884689,17.70367320984063,-5.846985451468372;9.293110413188904,7.232887066495933,-26.50420306457652;-6.031552623628923,5.831997732280366,-45.343616790221404;-0.955866597817074,-5.274031164227218,-24.94612313405465;
37.74730557714889,-62.94913550248103,-20.999333763645716;28.924425116936707,-8.456583709551111,-17.322824291267725;-7.9129013917875675,7.67980313109913,-25.502946312851986;8.648376967302804,-6.758778083109354,-10.392937292623666;3.9181590389971803,3.424829226134749,-13.210844929641656;-2.8828105476494037,0.7737161566902648,-51.4310514762051;-1.4722172669917593,2.839876341065078,-21.4911930365334;-0.4763617644496736,9.745115032059427,-21.358834459127145;-1.366026336073073,0.5490217868175494,-48.39183441889471;-7.098928601349403,0.8397257569056495,-23.847455101420802;-5.095985681434401,15.369051009702469,-27.95250377102946;-4.6808861455422734,0.85205116745082,-47.87303912057784;-2.59504990663152,-2.5492337373654057,-30.31488642979296;-23.31512468023497,17.709426453615496,-5.848885573112881;9.200280319866291,8.64085117625706,-28.75505889702692;-5.99043778512814,5.701909475997172,-41.69847203628649;-0.9886378335072652,-5.265013508792226,-25.74271038492171;
38.460805739447395,-63.28570691220819,-23.37458179693144;28.62498950908475,-10.166937925426407,-18.15657468118775;-7.753726156750974,7.58402018633613,-28.189208518476345;8.534376148524125,-6.689406728961242,-11.934500306182349;3.9366254215267014,2.520335980502142,-15.813319322283862;-2.881486158958454,0.7711549479474603,-52.667213495613765;-1.4722193080622281,2.829144124237438,-21.65436123188197;-0.5004985973185878,9.0286302541288,-23.120719260630683;-1.369104472652743,0.5533326215940904,-51.402872697784964;-7.139574798800649,0.9490354300750673,-24.823626338600864;-5.1362069564546795,14.712744340254122,-28.387207079305437;-4.7265087330149855,0.902324205752249,-51.223047048760606;-2.632593541085068,-2.4828809796289746,-31.26124841038741;-23.307128451013003,17.703352772464363,-5.846879620737404;9.277936188692165,6.594538195913553,-28.449933469264824;-6.081647140209963,5.7917924372302805,-44.8427690451172;-1.0299390038615162,-5.233307564083495,-26.853352818313656;
37.95465653657416,-63.05625303280639,-21.847341405986683;30.06406595849704,-2.536130412474912,-14.442242690423793;-7.845932071931321,7.662944867276399,-26.499692269210502;9.197021280990569,-6.807095159539849,-3.645580663106232;4.030946256514991,0.5141038877095232,-22.469251452084226;-2.893146084137156,0.7930099913838612,-40.29471993194638;-1.6340750515159155,2.9189152617881935,-12.73429099098005;-0.5648316378239088,7.007620037147744,-29.040113571027078;-1.3637059945180616,0.5433307531525366,-45.91187558603951;-6.828313439875467,0.8206918658780846,-21.37737426126756;-5.259791739864541,12.410301830766834,-31.31742585862409;-4.669215764515161,0.8290260931827177,-47.16386287581421;-2.3452600900120903,-2.6296450077204447,-27.01171337627834;-23.31041054130262,17.705845743759472,-5.847702973424231;9.227835626744977,5.700691077998212,-30.300372960953784;-6.047607602382427,5.813360695118701,-45.242206592436645;-0.8939976920974312,-5.289888664551691,-23.61233136843729;
36.86566991980737,-62.372012154298815,-18.091930670227036;29.565698658735926,-2.561801653845593,-14.312483377222298;-8.092671404444394,7.775801681284516,-22.52371092530466;9.446990605778234,-6.8426054677024934,-0.5640554398158927;4.11645423028041,0.004377907565769793,-26.391888436765168;-2.8955459435590054,0.7939194483812432,-39.21331793182549;-1.6322536760169004,2.907062009611567,-13.183146678116207;-0.5773935740755248,7.022853163371777,-26.41712398720381;-1.3531934570150899,0.5297633038761409,-37.016845981688974;-6.262027330147573,0.4505835258196826,-14.109072575339477;-5.301702800780715,12.413951407126206,-25.827638193496046;-4.562910166278162,0.7004554101003707,-39.20007114419729;-1.9585035133259794,-2.8683161374493302,-20.73956201109736;-23.31288758082904,17.707727224125467,-5.848324369232656;9.613362835104718,5.457561374292291,-20.15784826014841;-5.875975726553418,5.570526018710575,-38.456554498638305;-0.6573872855667336,-5.393348379456474,-17.814671746377805;
38.46639901000906,-63.07865843614339,-22.973343937463003;28.32471054784402,-10.335003621858105,-18.140607781965628;-7.985555739066841,7.698062588652746,-24.41032793255417;8.549869594691318,-6.617898837922884,-12.062316301870423;3.9384359416280406,1.7702502036277261,-17.012310192330887;-2.8829260313054577,0.7722907165808525,-52.65552277372298;-1.4398158351045776,2.788363813235749,-24.33106980298528;-0.5216596381072479,8.5772136908451,-24.146652990768494;-1.3715671244695138,0.5586934189941964,-54.04270149286888;-7.375364967202038,1.152275115603054,-28.226737636838113;-5.126560533923261,14.854584316205733,-29.38595513392244;-4.7464715736152305,0.9791497829871445,-54.76679986156768;-2.7693763582741338,-2.3345229700093784,-34.06107726231544;-23.319951633172746,17.713092853397498,-5.850096473581483;9.232653506499682,8.75411135814309,-29.112061628899202;-6.199875075180635,5.984934445626542,-50.24501117935103;-1.2155870776738482,-5.082175738461509,-32.347342196825586;
37.80920886089111,-62.65404252638395,-20.70067291874374;28.69191536110804,-7.780010223144575,-16.851078627413052;-8.16172655851573,7.771149005941987,-21.59584515475187;8.999524007212843,-6.8059427446369325,-5.966595194671073;3.8065835184723893,-0.3066895331309316,-16.047250345754836;-2.8961803038393676,0.7928549450461978,-39.09215990805178;-1.6166478657634489,2.9013758549488484,-13.820748071569401;-0.5257275665173825,8.851087453732813,-20.341848774603694;-1.3587553702716668,0.5419908865832342,-43.43805148009988;-6.600809601684433,0.633001614453376,-18.131586102790425;-5.080009637680785,15.716138088394159,-25.936656617253018;-4.679120913426822,0.8501801920059463,-48.115604044701676;-2.3550998416172884,-2.7014694446127256,-26.490962665676232;-23.313270072705727,17.708017752778368,-5.848420322020785;9.355451086898393,9.527957705028324,-24.35761433503653;-6.000362991386779,5.7305473687084545,-42.870570675290615;-0.9039443720193574,-5.300166870869308,-23.63984433766692;
38.04497900127237,-62.79513565610531,-21.577484135858338;27.81343943163502,-12.640446582503053,-19.211757057246004;-7.884631132570623,7.634113472956754,-26.164308275848956;8.836616241956987,-6.763182135926065,-8.050645480455785;3.799292722131495,1.0183039803315377,-13.313626065672429;-2.8910898768593283,0.7883818427540877,-42.35858765545298;-1.590921743051505,2.9082710752745293,-14.701560244190254;-0.5120163768070313,9.495191029243008,-16.639005833274602;-1.3606191191482664,0.5411387976152628,-43.28558898389846;-6.662884444286722,0.6140305140534097,-18.58603190225058;-5.161845661960826,14.830116789878174,-23.519041308123896;-4.675527861441702,0.8120593333066242,-46.11785663895631;-2.4154675347021066,-2.6801514614747446,-27.294188552229517;-23.313881224605662,17.708481964305737,-5.848573636986009;9.4884299820448,7.232766255818402,-22.85443448344049;-6.017901075360224,5.672647017112894,-41.84528647894614;-0.9074185678178291,-5.309705090707815,-23.61529293883329;
38.889357156972416,-63.41196765223432,-24.475678799919994;28.526243203267853,-10.49032986827426,-18.285142903371536;-7.852369477885768,7.6574047114031645,-26.475187785211737;8.443254582380336,-6.616989991498915,-13.2593484897812;3.861156355838017,1.9058069336343737,-13.891311302980261;-2.8838438704382474,0.7791459297079517,-48.90449497820335;-1.5217588965212558,2.8650253470179945,-18.798205347468052;-0.5247564820243555,9.050217202407698,-18.126520927061772;-1.3655896241906538,0.5470136282538088,-47.49881977101927;-7.105193550685344,0.9039441414485639,-24.32709721971292;-5.198541787864278,14.398418360593874,-22.150480176471998;-4.715632634417755,0.8989530017180123,-50.87478207392892;-2.7442620747262274,-2.3907421526677575,-33.327067418081185;-23.31402413725049,17.708590516200793,-5.848609488379431;9.6094040940779,6.011219364842671,-19.82514924696292;-6.097937918297824,5.826736197605112,-46.08038710406552;-1.09990728161879,-5.152130077130619,-29.313425686638222;
38.580317683617025,-63.203566709820386,-23.45786389681727;28.26165369875782,-12.108167749605128,-19.08625518039341;-7.673720337837941,7.549289045329725,-29.561882254636803;8.10853515845824,-6.501484154562422,-17.659799116416103;3.996520151153226,3.2362720400107814,-16.462938867558595;-2.8747245867727584,0.7627965141566304,-58.92393313104354;-1.3820482073057498,2.769690959617447,-27.12768583758476;-0.4770536790011565,9.322955939027539,-25.66732834072099;-1.3836743582348252,0.5693058854520918,-62.495955682794936;-7.839655732792648,1.3439935206045608,-33.55152407898395;-5.107364914488551,14.848910287872217,-31.180103524233196;-4.8814189634721945,1.1019958671202903,-63.40127337254446;-3.226899725791588,-2.0510535865858683,-41.343859131518464;-23.311699044490982,17.706824449762347,-5.848026210284779;9.274904819763242,5.342632023943491,-28.98896810985398;-6.40125460127113,6.2416608976349215,-58.129112422200905;-1.4019021234044344,-4.962856112831081,-37.30516466416092;
36.404955087091935,-62.11224035287088,-16.548203664429803;28.725202367671354,-8.156859581365342,-17.0694225946388;-7.983338595731257,7.683056452763478,-24.49071931929261;8.906529960086475,-6.684389736083298,-7.381132380729169;3.814162290544464,-0.08692128004551919,-16.546763555961675;-2.8873430525930615,0.7802445901794417,-46.817507706321486;-1.5196965452133349,2.8576992205346,-19.001932376880458;-0.5948700284628257,7.292028930722205,-20.269927044326398;-1.3620099323814177,0.5448677501632012,-45.873966846597256;-6.902448894863427,0.8507801228610837,-22.152721480438263;-5.258401823537408,13.485761222609886,-22.326442867406367;-4.678804339076521,0.8701684550378118,-48.81968240820169;-2.496930717665244,-2.5340614285480667,-29.35540565616103;-23.306705565652738,17.703031562207244,-5.846773534747461;9.727825545211175,6.839297302752315,-18.060634802881275;-6.083280083850215,5.839996823565183,-46.12077439563333;-1.0094076919197847,-5.213433309032161,-26.74575198146891;
37.130982814599825,-62.52391277305127,-18.90631344735293;29.24633227077043,-5.930261057719708,-16.048543793089156;-7.964108450906381,7.700427592383188,-24.609989783889084;8.549417512389853,-6.680846382744609,-11.708197652283863;3.9981615384497973,0.45743228929502683,-21.52515137752756;-2.8796043854543605,0.7750328229949212,-51.88816698024964;-1.4861528178149788,2.8474132260865486,-20.8851301953475;-0.5869071731184983,7.0519598496134765,-24.324475690947253;-1.3720041220258719,0.5523995588694494,-51.794685006486745;-7.322690543073402,1.0372247098541412,-27.120370211037212;-5.300206568607444,12.57741398545499,-25.580517074416623;-4.7903919146997005,0.9537434778588846,-55.182864577806846;-2.7965937481151024,-2.3414995068205147,-34.334494355979196;-23.312427911394405,17.707378073857683,-5.8482090555054365;9.671791227910179,5.02037767958384,-20.441120966112134;-6.320049174250731,6.007446520336432,-52.60844807110862;-1.2186256030634959,-5.0726720771994875,-32.549556201926514;
38.57826282520282,-63.135180671899555,-23.233591406109785;29.59779364946373,-4.4560640696869385,-15.343194169532987;-7.585079372799634,7.536065728691961,-30.936814459772453;9.200932668925594,-6.922247600392466,-3.2926464557402197;4.066219039394715,-0.07902521474565473,-24.714178254466205;-2.8868370950381386,0.7910035737826847,-44.0469511926387;-1.6063914879980312,2.9513982404313124,-13.18922118444568;-0.632662686325757,5.932508969564393,-25.164771433031763;-1.35822836737378,0.5310723856337884,-38.55253309582558;-6.539190484196528,0.37943381074897337,-16.15287947130002;-5.38811759079296,11.210546507008752,-24.67094265291023;-4.650225242805762,0.7338636695693411,-42.79798414782454;-2.2302656236999567,-2.9393438473775793,-23.215337449660158;-23.33379449828069,17.723607453035367,-5.853569126425144;9.687684524359762,3.1030342572448837,-19.834302053868658;-6.090499823956885,5.644696824540549,-42.3909786598917;-0.8378061785045823,-5.429414005112847,-20.95094747430493;
38.788105245074966,-63.38820151948166,-24.104033262833486;29.521282565654648,-4.538259543100977,-15.372706483705263;-7.711327191186724,7.598610798710727,-28.86289392263207;9.276500893292116,-6.919519177281035,-2.4631191153650236;3.928138060116292,-1.3723005635408028,-22.528739719515865;-2.8927121424996374,0.7962178296287713,-39.9661529772256;-1.654821945956604,2.9512262228932533,-11.150891982831201;-0.6435861373349064,6.028533251656797,-21.839022606202366;-1.350144687640494,0.5241780698207766,-33.059989271527506;-6.202951140695774,0.2482073120174557,-12.40047351168589;-5.387411080108553,11.844228570455419,-19.694612947971834;-4.552299187117575,0.6429089573643673,-36.4691174792554;-2.0502226032514774,-3.0662564498708096,-20.261123830362642;-23.332994962959635,17.72300015145953,-5.853368553163376;9.963715493088369,5.036216863242107,-13.131888073361687;-5.960305261837036,5.501658918053264,-37.93731900068931;-0.7035580570715206,-5.493757335634703,-17.597393748797913;
37.27304988757213,-62.702782088277466,-19.53141064767335;28.846631974859402,-8.126547867422556,-17.107007978693712;-8.030766963578225,7.787133767825761,-23.227370522652652;9.194467680675498,-6.9411285409567585,-3.273518380658368;3.8162778254592884,-1.7303604546206344,-19.414152606263656;-2.8963415048804024,0.7993008506935008,-36.692896293870554;-1.6324746015500395,2.934019352278961,-12.442533050208722;-0.6066539090306406,7.083671614572947,-19.654133346578536;-1.3495087589143047,0.5219429744096133,-32.63692280091754;-6.196553058224434,0.26603967721174326,-12.526449237315271;-5.333191610174402,12.765520098956236,-17.984590989176738;-4.532323566805158,0.6156782813567572,-34.94384535154799;-1.9746814967119632,-3.0762138356310857,-19.387298950857133;-23.313823974078055,17.708438478626707,-5.848559274987662;9.999523320522643,7.270009609734248,-10.399675353494075;-5.790324049687437,5.333953073896825,-32.528395446283746;-0.6932401097621402,-5.488076883322715,-17.46291482423393;
37.826383811914354,-62.88587295910312,-21.218544941677216;28.515734675631908,-9.736603716184957,-17.882262323861767;-8.17867920795244,7.793380003117616,-21.210880392718867;8.941301887473188,-6.783752943196181,-6.6656983083098265;3.74591599320221,0.18092664134175254,-13.326912706129612;-2.896467620990164,0.7907513946566054,-39.47042381732253;-1.5955518451699293,2.8885413201154204,-15.008751402583302;-0.5379175260195067,8.598492438671984,-20.34306747879465;-1.3562736856015862,0.5378006142637659,-41.031980134177346;-6.5523898732066295,0.5706237898939354,-17.415666964791303;-5.096160445281136,15.538135509504786,-25.54189529454624;-4.619004872270028,0.7664548601566218,-43.05483502136777;-2.259662848054284,-2.8035762011515857,-24.664135142969187;-23.30622844644132,17.702669157643303,-5.846653843529535;9.308447436395893,10.686557719424407,-25.4428351965595;-5.88947815792321,5.581860266291318,-38.58768225192757;-0.8247654572522719,-5.3524765974314645,-21.51251731021087;
37.168932630956895,-62.61740463772054,-19.146536701692252;27.865463450024503,-10.715940852824456,-18.14118647514656;-8.334493434717569,7.866888086567398,-18.669519652151106;9.228517145986457,-6.7923734894412275,-3.3309963097671926;3.6064694908655395,-0.07933976555444482,-9.26045313082983;-2.9040557093684773,0.8027164260161795,-31.928252091796313;-1.6776831989891197,2.9397287022773066,-10.072648212868291;-0.5379825986821646,8.864996778347829,-18.061774860260233;-1.3494505158431245,0.5299570586139104,-35.594486697998306;-6.342819116407149,0.4757111249589244,-14.872689021322612;-5.1643578931416165,14.777533493424924,-24.25131205420836;-4.573474338650047,0.7199022599515288,-39.95939879063773;-2.2058161699773113,-2.7948358141795864,-24.131334200656532;-23.30824563558197,17.70420135029541,-5.847159880217073;9.50083111817851,9.510180342648631,-22.585837233524714;-5.848328204928881,5.557446388295912,-37.54708106794438;-0.7616796156969697,-5.380937092711388,-19.967916248546402;
37.00810802404542,-62.41251879064106,-18.377036486870537;28.773692007948693,-8.185310066378246,-17.10217371214033;-7.935770593951632,7.656203750166099,-25.361462763855947;8.712315877853714,-6.603375427699466,-10.06708606425904;3.86051104533091,0.9487592072869702,-15.977951218046995;-2.8887302916267394,0.781648982193075,-46.355507167786634;-1.5296220040137243,2.852477672667079,-18.7244354051711;-0.5159825241925964,8.713797653566607,-23.311238532501985;-1.3654401256236217,0.5494740279086923,-48.83471219510026;-6.973130826254965,0.9027866233327647,-23.108981196614902;-5.144492681790999,14.621880572021881,-27.79156946798656;-4.724556629891469,0.9262898075345152,-52.44898583144267;-2.687391406261722,-2.4085630142455554,-32.57550775315757;-23.31170964302402,17.70683250007026,-5.848028869057057;9.437988947375684,6.762612910857036,-24.53460180132592;-6.125359443109135,5.923510370284418,-48.4096192416924;-1.0742062209432621,-5.1712018174068755,-28.589944210655567;
38.0869724827535,-62.88498304274011,-21.877868183497387;28.29678272868694,-11.026212219165183,-18.51805817516079;-7.84899875744091,7.608642294000039,-26.715607956493752;8.525366998382685,-6.695133089214658,-11.855537014974033;3.8273121198426217,0.8073171035483215,-15.105459956900019;-2.8752492512837318,0.7681559116187674,-55.51652613191259;-1.4214691618538473,2.8242915986690615,-23.91750136495529;-0.5261048898574394,8.662127901513717,-21.653252840696542;-1.3785820637827937,0.5632364079966975,-58.442710267423585;-7.568819508898844,1.0529472839967302,-29.361727263508815;-5.152963752102433,14.44359278543307,-27.774215450480117;-4.849338765826084,1.053685205127972,-60.55541683365484;-3.0363422576231405,-2.2639081971676402,-37.422887810411964;-23.30083239781357,17.6985704908934,-5.845300178412734;9.331138598969902,5.869906631882279,-26.598660418818636;-6.287667500304302,6.0302346737379,-52.473299967040205;-1.2486149536401283,-5.092459342578342,-32.71482059717136;
38.68156742795684,-63.22364605808553,-23.743220685757738;28.948401127455437,-9.276574392188834,-17.78605493168583;-7.495029486310614,7.459773670079918,-32.47819845676008;7.964173820896531,-6.517629904064212,-19.184122040692696;3.929118667771955,1.325779981172612,-17.53881237613072;-2.8657294199661374,0.7530199455782577,-65.71065346000734;-1.3152015893907039,2.780657231398369,-29.533450962207947;-0.5146686078775247,8.954082435894405,-20.87403794338152;-1.3885612087784274,0.575504516403002,-65.99170046168635;-8.36789918080238,1.5510878996774318,-39.39936081936274;-5.198165230956419,13.579337311057904,-29.74884876011416;-4.949552334595465,1.1929272762083962,-68.48277580547952;-3.670732361052337,-1.6725127308467256,-49.357955939997936;-23.314044496105765,17.708605980139115,-5.84861459564846;9.266354077921891,3.504158160100902,-29.90425476726164;-6.626210326412954,6.4282126402805675,-64.53887560196439;-1.6946331629610194,-4.7671509267400465,-45.39198211800396;
39.28657380811143,-63.37297168082791,-25.45773564234468;28.403531742486226,-11.925402577439337,-19.046139080646025;-7.307337055612977,7.353015459187044,-35.65799975106027;7.969982423305444,-6.57143130813452,-18.990404809264415;4.037273283269919,2.163604289700888,-19.50006463837967;-2.8577800165775114,0.7430247724060782,-72.30779296591653;-1.2357835671439314,2.745557075721639,-33.785067558655825;-0.506151051500853,8.974331339634492,-22.5510967089868;-1.3939636950499483,0.5794676994137486,-69.38452399938753;-8.559269248313987,1.6673110714887915,-41.814257002356115;-5.20991772940983,13.648970394543582,-27.668419774694897;-4.981868335504758,1.219067135259222,-70.52952669348021;-3.756993354181436,-1.6439795454132728,-50.37493761027268;-23.3132665488497,17.70801507617054,-5.848419438018117;9.481764492998465,3.2697172487710766,-25.50823712512413;-6.641410471343628,6.400915794421766,-64.35458195358184;-1.7099052299612827,-4.772455870992441,-45.48469518498791;
37.574083475952634,-62.53489911228251,-20.053193849244995;28.480375831528693,-10.15182408751142,-18.082359623039995;-7.927924117175901,7.64868147849096,-25.419424474710183;8.257399999130701,-6.518024491565675,-15.775848111685677;3.877820048734701,1.1986632487529403,-16.22833234529804;-2.878471987615046,0.7692701598521713,-54.126480047795546;-1.4541396687563883,2.837316387502049,-22.083269056651694;-0.5185121373768857,8.638387302995737,-23.200329360523735;-1.3753090588706611,0.5607757612497252,-56.46974274535046;-7.3930332172851845,1.1533598427819587,-28.319964300913046;-5.160362703247074,14.26318584232478,-28.74388883737718;-4.798898406925676,1.0240631729477128,-58.12317283767061;-2.917968580968694,-2.2440556315748554,-36.444186047028424;-23.30480785212384,17.701590119425585,-5.846297469985566;9.36913324651858,5.336589328830645,-26.81659304488158;-6.280125100297524,6.092233409293642,-53.495338127138865;-1.2315648602737963,-5.048435207905478,-33.09580237131961;
38.09342911927869,-62.85137422952554,-21.82511099602035;27.959463712402343,-12.02825317701806,-18.929421018415912;-8.021928828050067,7.725937171758914,-23.630709304783874;8.753309482347207,-6.802832407296793,-8.74975600541237;3.8009895819019826,0.6258417385244311,-14.073810224997876;-2.885719929586277,0.7853057833204988,-44.74733567041243;-1.553400332442684,2.902555889940252,-16.23972915251849;-0.5102207813713063,9.389545173324915,-18.120293421034788;-1.37175117448067,0.5490622797902437,-50.67730882061862;-7.00346439219742,0.669638500529192,-22.0445857867015;-5.173083639346957,14.38664076746717,-25.54290078088247;-4.77324983481496,0.8957109138611293,-52.450380669910714;-2.621670210759246,-2.661062452699712,-29.72019623537825;-23.30018019077368,17.698075095189548,-5.845136564260967;9.362027237194928,4.978739757488442,-26.72597372010745;-6.10154108890533,5.734177976065994,-44.522239472517505;-0.9902524734346905,-5.311187974692688,-25.184986623074938;
