33.77506963899742,-61.00399216265884,-8.540023278049032;30.346411250021582,-2.00836770392423,-14.223950996186252;-8.291476578119529,7.921249604977297,-18.974437441719367;10.084166332959727,-6.9481694201277175,7.3218731091381;4.020608525119274,4.855895378594662,-13.296182450962569;-2.9320703216754156,0.8223892064728227,-14.403501133995569;-1.830342127709494,2.9832604547201385,-2.6191203091487907;-0.49948694406580935,9.76389245541142,-16.813091540802137;-1.3063176270032202,0.500722395569592,-8.764882183144913;-5.342582717505797,0.0739866976636741,-3.5150629960734285;-5.011558416805376,18.078307383160617,-15.20195249644369;-3.9810613571290276,0.3499742303823049,-6.425698984707083;-1.151438856008612,-3.314923070512325,-8.113749797646324;-23.30960730514743,17.705235632218105,-5.84750147161095;10.193385353053213,13.97902743137093,-4.2150912002931005;-4.841577602598695,4.906382380345023,-9.098418224612686;-0.10686662394165947,-5.629507774875845,-4.163098896601824;
33.72672670642097,-60.99528376481199,-8.406124890603458;30.433809284122102,-1.3762900101512985,-13.90419837284808;-8.202521023409174,7.889165926961001,-20.351533560963915;10.15275835869926,-6.9387939141512565,8.15017594559914;4.034819797201095,5.302277281698533,-13.003160799390518;-2.9346027040821787,0.8230137767087125,-13.10661161564037;-1.8378214240666615,2.9835787125921,-2.264967826912736;-0.48889886144058053,9.806634052610608,-18.45905472057916;-1.303891261407253,0.5003757877003195,-7.592428225711586;-5.279846182747909,0.07051242455002205,-2.869707767194658;-5.00404489920107,18.065169828273458,-16.19405949759377;-3.9858611669911594,0.3506128585310432,-6.643932743888367;-1.1301154541805873,-3.3179110327620105,-7.832299137770711;-23.30960724189193,17.705235583813565,-5.84750145579334;10.167664133634345,13.175741073916285,-5.356032446248672;-4.8193379485474415,4.903018435577953,-8.599860529404957;-0.09564430781066247,-5.630282323492078,-3.916624004424392;
34.47754223408024,-61.1461274035808,-10.498172289162149;30.019292981314077,-4.187502162414309,-15.319555843039975;-8.237765858379209,7.902310501364129,-19.803402921020684;10.189195547736565,-6.93347002827876,8.591288662355613;4.1587478004920175,5.51581053165994,-16.69305291108661;-2.9323461048104873,0.822463944826924,-14.266051996951216;-1.8248049233633021,2.9829884532565742,-2.882898348129581;-0.4447259136575946,10.551927551900505,-20.399413346103763;-1.3056340734606515,0.5006258942385787,-8.440758383792025;-5.313700470722386,0.0724321558079164,-3.2174948776239454;-4.963844194729801,18.463421986952387,-17.56713366852878;-4.002890887073974,0.35290904183737154,-7.420787533465706;-1.158657886001417,-3.313895678715276,-8.210017882584888;-23.309607182807433,17.705235538756302,-5.847501440996588;10.112549076484429,14.060488213141587,-5.855950514738673;-4.827238734051231,4.904310960530662,-8.77440827337508;-0.0845685135551636,-5.6310773537981476,-3.6738206981824852;
34.461797419530825,-61.14257005347362,-10.453775721406043;30.147967042768474,-3.3634973068300074,-14.90660823359551;-8.34354786906466,7.938973545724644,-18.172226770303002;10.089527778904435,-6.947520819094096,7.386616172964193;4.0951892325429915,4.6914821326131735,-16.012516830775823;-2.9277969086402758,0.8212156915575913,-16.579838612634994;-1.8000285991916896,2.981487910320719,-4.057350387322542;-0.4667482070468379,10.100593386649424,-20.136159538669396;-1.3084284342627985,0.5010732818246739,-9.809400978015091;-5.318892805991819,0.07260908987484138,-3.270796765803036;-4.97327503202657,18.408358256341657,-16.919818074235955;-4.04696515646857,0.3592576915284593,-9.414399423559729;-1.2809134217016742,-3.2944096435778736,-9.83216706029074;-23.309607124778946,17.705235494572662,-5.847501426454606;10.125833635233596,14.803406334167201,-4.978580987837587;-4.8823821348150656,4.913399587515083,-10.017329173743988;-0.10679612148157525,-5.629485978227573,-4.161866997369792;
35.58576182582675,-61.435788491433094,-13.653325809291463;30.122871760904193,-3.5285974256555477,-14.989477278467323;-8.537205557096625,7.9977115253323605,-15.22172396264793;9.992595475591491,-6.959264474097241,6.218872220900751;4.131408538699459,5.40319405934398,-15.985462768422758;-2.9231138621886896,0.8197001491726077,-19.03208811151558;-1.7965932236320685,2.9812396193394073,-4.219691253630511;-0.45757900341533664,10.33743029395519,-19.824004572666546;-1.3169781949929058,0.5028723080467905,-13.99735220128892;-5.427812360090593,0.07994404345320527,-4.392246839369211;-5.022608498520047,17.8491427712285,-15.820624718876672;-4.118706471220765,0.37332905732782595,-12.694461761365236;-1.577106634410129,-3.2324239514762336,-13.798762727912042;-23.309607067253964,17.705235450807173,-5.8475014120338615;10.067370769512491,13.139882604254986,-7.495512855901991;-5.049873445856362,4.9489092130239625,-13.817108930573191;-0.20160220458897038,-5.620901660972261,-6.24047617796797;
37.53738910945947,-62.164842427228706,-19.4661012141973;30.31190729686286,-2.240908836448356,-14.341135354668069;-8.695578404669686,8.037710309085229,-12.838221387073373;9.60236998490535,-6.986116968486319,1.5430124803309182;4.0551386335348765,3.004544484362879,-17.65736177096693;-2.913972799436458,0.8161219419871595,-23.878913265469823;-1.7794047889258402,2.979848064904691,-5.0342872440582305;-0.41369686877337597,10.953290837661909,-22.855290587498594;-1.3358420415194772,0.5093288630230619,-23.596127449734045;-5.6010358531277085,0.09629778102211295,-6.179650585616958;-4.9658421116273335,17.79131590721647,-23.09886711655119;-4.393556015280786,0.4698861663860062,-25.802324569797825;-2.0978908747510414,-3.069078152634738,-20.959007264808566;-23.309607010083802,17.7052354073316,-5.847501397699241;9.692220784187308,11.225760792996041,-16.825597424743027;-5.499427407680105,5.105448528646416,-24.396193308758647;-0.5273010056427383,-5.564224223082071,-13.469227414636599;
44.377902618263526,-67.82141202764304,-44.60106493383222;31.37715005408807,8.315079750675082,-8.917293180890008;-7.834019127407373,7.728849982996275,-26.20362912306718;9.066282117580405,-6.970431425743748,-4.862236688697187;4.255968697726764,8.130587839780901,-15.593740135826344;-2.9082791046955916,0.8133818141263846,-27.025121418599905;-1.7188861764167822,2.9729450144649556,-7.9168831418200725;-0.22334747672339134,13.660447811707336,-36.426315545056106;-1.3961454237163053,0.5681727319509592,-64.97412091549748;-7.708038354744247,0.7721070674709261,-29.109351128080434;-4.9569342386481345,15.685159342815028,-43.703159500391536;-4.908049134860006,0.9255204244231996,-57.02170095096834;-2.87805150557163,-2.6765102353158188,-32.43481150596815;-23.30960695321676,17.705235364098993,-5.847501383438853;8.789852848531822,1.268979252809114,-41.298230230005004;-6.2514362740040035,5.627154649902609,-44.822363196595695;-1.094782422337781,-5.356605744186962,-26.704848405647137;
43.549357847788485,-66.75552696948107,-40.88239785624233;31.080150656688314,4.3351749104723,-10.981489321104693;-8.121798280441693,7.857835810423888,-21.613328064881983;9.039399725231217,-6.967860680045817,-5.184232721738328;4.359021052706684,8.499740677110676,-18.411167109245365;-2.898909525253442,0.808035506478343,-32.370571666404416;-1.6413660304726978,2.9596118221044865,-11.636766530449632;-0.09173044473799645,16.64506888505977,-34.918786299271545;-1.4023044506161368,0.584069936319205,-73.16137063076104;-8.558272599686791,1.359967733980159,-39.78332714244989;-4.828606840220723,17.668362480829373,-42.29797056746591;-4.979998810415937,1.050903639618367,-63.504789700932136;-2.883773548376435,-2.673007005684446,-32.52303483480012;-23.30960689663103,17.70523532108857,-5.8475013692478335;8.857326365085914,9.344592441742734,-37.808084098369186;-6.457061816959418,5.858950941810597,-51.700049927440006;-1.2028089944423546,-5.299201714214366,-29.378514923720143;
42.829635004772406,-65.94047560627668,-37.8634920175819;30.90444571976056,2.5346748463126367,-11.908699015398167;-7.481674183912597,7.530690592517748,-32.08352391850562;8.13954435336725,-6.796845084580135,-16.108877520738346;4.033038430019492,1.054790613861866,-20.50766775030704;-2.904489748982807,0.8113781927915042,-29.139774184290935;-1.6230161525416564,2.9556890411095917,-12.52392062986828;-0.30340616633451534,12.907714140114525,-26.90331692278661;-1.4009814701757215,0.5800525140079948,-71.13702554948387;-9.036707946804665,1.8138173851864257,-46.58808513777679;-4.667157332399737,20.069014226940265,-40.347032243500834;-4.971927404198866,1.0348117453064447,-62.70097566313489;-2.920642186866541,-2.6493707170754113,-33.09735615238992;-23.309606840315773,17.705235278289532,-5.847501355123826;8.878294950301006,13.063207616864062,-34.68450645712313;-6.407081705267323,5.796902365342908,-49.93224186989944;-1.2179831440869502,-5.290625745008549,-29.759399489567453;
42.056217348357734,-65.17113733112542,-34.81350836741984;30.486605106871252,-0.9822768265732087,-13.704431498641608;-8.050362452223128,7.828467761255541,-22.737046164656622;8.238955297368898,-6.824798104595543,-14.880693951433368;3.965821026009566,-1.3517709563937275,-22.906665906578397;-2.9027877110878513,0.8104003047442128,-30.115301868312088;-1.6340528091136317,2.9580858052255885,-11.989819989416512;-0.40737932495150364,10.133355689094849,-31.733611056996494;-1.3909823032637523,0.5582403046505877,-59.58970705714764;-9.002168830696018,1.7774524511024197,-46.06994414457904;-4.716403603507162,19.04266419273246,-44.2568024417517;-4.82892369671131,0.8156440710341429,-50.947686670108226;-2.620339428115863,-2.828469452035281,-28.507924012381526;-23.309606784264712,17.70523523569549,-5.847501341065483;8.729183162456058,16.407364303713972,-35.300141843637576;-6.18999916456162,5.567604799204338,-42.92386047668239;-1.0821062942277506,-5.363119484042863,-26.393002546790292;
42.875106449447195,-65.99556507121642,-38.05870208529139;30.017755804364597,-4.194728808760518,-15.322928317187369;-7.706077512853175,7.662566294913368,-28.299529040702403;8.228259658334366,-6.821941423833317,-15.01253280816904;3.8689665466027883,-3.4069439046393146,-23.79093409378512;-2.9072573432443822,0.8128609553158267,-27.59078829284683;-1.658021029060749,2.9629145804266415,-10.833350442536362;-0.5850411912152218,6.15707626400606,-32.28370277066934;-1.3892561753506887,0.5553980630426768,-57.989040978928635;-8.885843485523543,1.6590908747965876,-44.3578130329985;-4.98742708282323,15.791052876922997,-38.26797280693078;-4.7861608851910455,0.7653057134448173,-47.98560585383779;-2.855140784373689,-2.691187341976983,-32.07793556064257;-23.309606728473604,17.70523519330215,-5.847501327071891;8.54772424477798,16.7442056675851,-39.826804624119;-6.02232886440598,5.423829104859632,-38.02032512257839;-0.925933455646687,-5.434336406787712,-22.641433061717155;
30.875470161719324,-60.7245829937997,-0.7101727930486703;30.142345435031803,-3.401761511068573,-14.925953766455965;-8.587801657662995,8.011210842782473,-14.457838994083053;9.401600565090948,-6.986551262303394,-0.8549837455969396;4.074306062934015,1.1054441321959838,-21.798612785882174;-2.9207310740677035,0.8188510031720295,-20.271806246273563;-1.7627290948798158,2.978230708527917,-5.827282412439116;-0.5747790891992419,7.142826521066977,-25.289333330842215;-1.3202454238222194,0.503752000144197,-15.632121838602806;-5.530041556797331,0.08931976003961628,-5.447728173963455;-5.2817780217289085,13.685966786209605,-18.55952928928435;-4.287647523354948,0.42420336031361106,-20.621291732912944;-1.4076364785463484,-3.2704365127833164,-11.521572353120504;-23.309606672939278,17.70523515110633,-5.847501313142363;10.259043726118799,10.259815307638508,-5.253498527573118;-5.543648783207242,5.126275360932233,-25.48186541894625;-0.6449370673699012,-5.533090717568319,-16.127346498366464;
31.833077109484012,-60.765654877235704,-3.2598126401470946;27.197256287570518,-17.453213779133105,-21.695421857285325;-8.487647850531612,7.98375192168252,-15.972403365193644;10.05030590066399,-6.952575739849554,6.913820717254151;3.8126017080068784,-0.46489841064954507,-16.08170232922976;-2.9260865644078855,0.8206680551166897,-17.505912811205654;-1.8630999700267175,2.9843121387425797,-1.069080129758932;-0.5999907266745683,7.607707266781317,-16.33787349781203;-1.3205087415210108,0.5038051084905609,-15.74163910050868;-4.894854861942131,0.06451849793601583,1.0830442873578825;-5.360683879352149,13.0937034283621,-13.72191737439834;-4.197324599751313,0.39379212026744603,-16.343875240475338;-1.2473461037267501,-3.3001194746930738,-9.385508416756233;-23.309606617659046,17.70523510910548,-5.847501299276304;10.315647755752456,16.499187499329615,0.4800817256648884;-5.187343215113306,4.986926575620412,-16.98314967769291;-0.2775942791176407,-5.611483968348861,-7.913655494797181;
34.32011234064049,-61.112144660975375,-10.057633997565228;23.671260081152514,-28.650540589577965,-26.519025761621698;-8.654513182141418,8.02788581517356,-13.455298869614289;9.646770378698557,-6.984681934870063,2.0733571976717826;3.488419836553952,-1.4148939466637063,-7.39328941375325;-2.9242605465516442,0.820094664661599,-18.42393240129746;-1.8738233062668936,2.984465336676228,-0.5619797467721774;-0.7226926458968541,5.470412884801631,-11.362718999236115;-1.3201909372431158,0.5037332897593021,-15.609507179352605;-4.759042123436153,0.06872608185143136,2.4772995395244735;-5.580700696386525,10.396360606072024,-7.317392879834463;-4.195820646238345,0.3933855073232707,-16.274442983514007;-1.213894878917382,-3.3054334659317997,-8.942608446605469;-23.309606562630588,17.705235067297433,-5.84750128547318;10.643239933877242,10.73908699282044,3.044210719055485;-5.228751510184208,5.000138901003347,-17.948860713298178;-0.32387844005498256,-5.604569247084257,-8.937005162077138;
36.08196762792989,-61.59344128146303,-15.097034171606452;23.378836749764325,-29.450955669343468,-26.838672485281002;-8.605811182281043,8.015991607857446,-14.185890919972305;8.943197888655224,-6.9580754758734775,-6.337063488881631;3.5376964410817457,-1.3012461048521702,-8.75869038129203;-2.9206537416636023,0.8188149448145142,-20.335194408160163;-1.9037958027570632,2.984389028950485,0.8548386597779682;-0.7682689547935637,4.445424644926916,-11.390138850933187;-1.3254820609673572,0.5053281952674792,-18.24815848438189;-4.852185046098902,0.06552342588159926,1.521463698568363;-5.7285777203218435,8.235177589905067,-4.462148985127239;-4.310203894439418,0.4328071793364865,-21.706815519793402;-1.26596569702302,-3.2970928668473496,-9.633048131938459;-23.309606507851694,17.705235025680214,-5.84750127173248;10.972122237218292,6.758218851467071,8.230946554216917;-5.389201025130189,5.0580259533131535,-21.733142061694792;-0.464907784239017,-5.578508719813184,-12.070295438924452;
38.10492279600667,-62.42613190663187,-21.21789592405138;24.668665301093483,-25.802489512030334,-25.352905487662923;-8.76579117098309,8.053283408844162,-11.788808532816963;8.48682263306714,-6.884167128460414,-11.847165437323655;3.402695922169765,-2.8311726732431786,-7.351888831652612;-2.889817211213169,0.801613516400545,-37.89402820900015;-1.7187165885163438,2.9729045555973213,-7.923313836773136;-0.7702739188313894,4.641741279574851,-9.39632492186405;-1.3338254951113044,0.5084521873635667,-22.54777035436439;-5.145716352597082,0.06543578340892509,-1.4917295156337644;-5.686835623752745,9.119644421428209,-3.578652155275474;-4.3885671249460785,0.46720010359011954,-25.5471520525671;-1.4770288716060411,-3.2558228555060698,-12.451499731766862;-23.309606453320292,17.705234984252034,-5.847501258053723;10.93149274507834,6.974053538015413,7.440155816062166;-5.363510859819541,5.04798370003664,-21.120776689486462;-0.3826560399197231,-5.5947081756287895,-10.239039964046992;
37.43534573419718,-62.11313902436053,-19.143763436833975;26.43612956067509,-20.172278957594145,-22.921119501311956;-8.569642567713098,8.005878649539385,-14.734168654401389;8.283103119050548,-6.836052343770591,-14.33872769890991;3.4611907505454065,-3.214563558531589,-9.973723155485455;-2.8803559495391937,0.7932899666616109,-44.143145875245736;-1.6056657080062022,2.9515400709236186,-13.36627857023323;-0.7443690441734434,5.18190934990486,-9.736537776309273;-1.3416031963083712,0.5120157540651271,-26.65570363164296;-5.3954035238623375,0.07767078068944477,-4.05842132385458;-5.663803875387146,9.387751403944748,-4.480948342297914;-4.423453065883692,0.48460958459812625,-27.296854405087682;-1.6642626082591925,-3.2099931213906743,-14.978066113622926;-23.309606399034397,17.705234943011213,-5.847501244436428;10.843124358315169,7.233995109286072,5.667040607872954;-5.4417265235335055,5.079992423333961,-22.998717237074857;-0.3763057793609846,-5.595756895944162,-10.098664479537375;
40.32573607689222,-63.752787532498665,-28.51477885759083;27.403767154052264,-16.672011397550378,-21.337095190492935;-7.5272606593447575,7.558903663709223,-31.304379543520824;7.522687882446936,-6.569943700960079,-23.92414774390278;4.2866986197338095,-2.099559234109039,-35.927356103850734;-2.8511125731361253,0.7469011576276999,-71.53967750864703;-1.3842996276769601,2.8758325428806417,-24.45050228777751;-0.7237285232986891,4.553078398067376,-18.882999174173136;-1.361084317471386,0.5242657669363404,-37.71915113147289;-6.322313637332456,0.22360223773633026,-13.714088484238228;-5.6649948608752085,8.99802861373845,-6.890762859765257;-4.665957993827428,0.6480265677334123,-40.44644670426487;-1.9820802756636484,-3.111934418046601,-19.33889933308842;-23.309606344992062,17.70523490195612,-5.847501230880127;10.960118797449585,3.2477323434463186,7.348721967374274;-5.816301017025252,5.277616577549037,-32.40922787623365;-0.6301601724764768,-5.537397099681905,-15.792281322568577;
40.2971838659882,-63.732237167138095,-28.41570324129573;27.440592325931984,-16.530935995931937,-21.272100843639492;-7.442383480132584,7.505741450840688,-32.75945161164246;7.208015311550602,-6.41534684626455,-28.085096726401932;4.414711765273507,-0.2808006328833449,-36.760547087625795;-2.8544156122716986,0.755647550471347,-66.90999922711345;-1.3416948645488176,2.855468553312029,-26.68231542549118;-0.7595909760851988,3.6249474490759264,-19.90930014285638;-1.367001099263306,0.5291137664056087,-41.380473178631775;-6.9122755534741405,0.4035819304746764,-20.065026585039078;-5.72331761622493,7.872274694230629,-7.361095163108711;-4.774537242871309,0.7524155050985785,-47.206961185436185;-2.1519396334427427,-3.0482971463630237,-21.71799490789824;-23.30960629119138,17.705234861085213,-5.847501217384359;10.931822728143288,1.280373940639934,6.755114818169801;-6.156330372576016,5.536510024013509,-41.905501383233975;-0.9202761095507448,-5.436749980698582,-22.506708356472597;
40.301646982675955,-63.73529687968124,-28.431277132315113;27.47739132081306,-16.39011478330548,-21.207242837058814;-7.522570890023532,7.556294240888731,-31.382511905012237;7.010058047140257,-6.302803771543362,-30.785508196765765;4.380296436190145,-0.7412411483624322,-36.45989491076747;-2.8530570113280285,0.7522036316081685,-68.75007131939428;-1.2728724624459267,2.8179954271732948,-30.390918751414667;-0.7238250958343881,4.3713446347523535,-20.419548199159557;-1.3656554079445054,0.5279769216132641,-40.546620244598515;-7.003373841555075,0.4379999166672399,-21.06798135801296;-5.684267550339873,8.54118733240854,-7.620659843500199;-4.802987576463834,0.7843071587526321,-49.1227343035509;-2.1796903190980084,-3.0370231270419956,-22.110946669312888;-23.30960623763047,17.705234820396967,-5.847501203948671;10.977883267437019,2.398078370514365,7.6896435304255455;-6.282405416576122,5.658600906176181,-45.8015380760574;-0.9506062199257921,-5.423866749453847,-23.227135871980455;
40.43063983023661,-63.827873105090944,-28.878582427591848;27.519223526035894,-16.22690847853357,-21.13182211611674;-7.629748207495791,7.620062703836506,-29.569935632084473;6.874528278441398,-6.218345074488166,-32.67817382621248;4.349588653102845,-0.9509970845547877,-35.753641394912904;-2.853862247821807,0.754274368635322,-67.64678304822242;-1.254962345672955,2.8073105771231885,-31.375708735406405;-0.7290883458067042,4.234032531294583,-20.585731755072665;-1.365396602978176,0.527787321634695,-40.4076228060245;-7.030833353951514,0.44874020517816304,-21.37092988945057;-5.6915378605597065,8.346707730568369,-8.022720703333547;-4.797963172311303,0.7784966473750786,-48.77864930465175;-2.1525263616495693,-3.048054011575194,-21.72667639439847;-23.309606184307505,17.705234779889913,-5.847501190572605;10.989455026070669,1.709320247107616,7.947442028805305;-6.275503872880847,5.6512280175821585,-45.57653624284791;-0.8808727044510214,-5.452686918350068,-21.577470732575907;
40.51946808309438,-63.892622832292474,-29.18854400786719;27.50579419201021,-16.27908566746271,-21.155946446520858;-7.662294168008906,7.63849596756362,-29.025508339469134;6.920184092438124,-6.2474873349839894,-32.036406188469044;4.340709377935255,-1.7557647572493065,-37.21322805057098;-2.8553873861269916,0.7577985457092165,-65.74802494474764;-1.2690594706157985,2.815766556064807,-30.599299545194185;-0.7391963695786528,3.8766432482983593,-21.694166368498934;-1.3664568259603087,0.5286526482918538,-41.044353965053375;-7.022731392704138,0.4455565936445841,-21.281460962110696;-5.7407085104825075,7.358677133481455,-8.55216046217815;-4.824457744997099,0.8098836526137245,-50.62131195420702;-2.1767114730060246,-3.038333606808202,-22.067731831727578;-23.30960613122064,17.705234739562602,-5.847501177255714;10.974572282098174,-0.11995511101213907,7.81698255890646;-6.4134061406208565,5.804672683500856,-50.154691040514585;-0.9388338442179663,-5.42894373813369,-22.946184796600264;
40.09772305329388,-63.593108461802785,-27.7302318071354;27.340434532825512,-16.914868101515278,-21.44881946900307;-7.5462955197138895,7.570816460712177,-30.97821132668203;6.9510528368425595,-6.26680034087543,-31.604724162705313;4.306474890547003,-2.9540828514694852,-38.65142622339903;-2.8557799798773145,0.758707514831649,-65.25330524835259;-1.2202160872202912,2.7852728465645327,-33.322136600687486;-0.8771575443044108,0.6296030044755336,-22.58583766468156;-1.3657568573067416,0.5280551969722523,-40.60422248580628;-6.851652142828517,0.3816648716794636,-19.401226577904552;-5.843652044133853,5.325026593287484,-8.807317118084494;-4.831330684587913,0.8183475155938831,-51.109252123486854;-2.0801069643747243,-3.0761781352855104,-20.70767170101813;-23.309606078368102,17.705234699413612,-5.84750116399755;10.924522716018846,-2.0774204438947077,7.201189396483041;-6.4480964537322105,5.847570216145539,-51.378530581575845;-0.9816791025154257,-5.410311588491296,-23.96747887381717;
40.38158091256028,-63.7924833794611,-28.70814876615849;26.940713013732147,-18.39723744885562,-22.125003870635787;-7.535440778556736,7.564307149119168,-31.16210958236352;7.299708769164927,-6.463370997600555,-26.857468275273696;4.258906757719004,-4.094601361593413,-39.50036077054138;-2.8568450091570683,0.7609219928541936,-64.04115376014323;-1.2167712964156008,2.783025317417676,-33.51592142514574;-0.8450033036155472,1.0172666458309738,-25.60609959177365;-1.3636080756658375,0.5262478757275261,-39.25299081704441;-6.59758973197655,0.29844687351358745,-16.649039102193143;-5.7603402289627095,6.2818923946071035,-12.850092033960962;-4.7873626178627,0.766597578842227,-48.06521465315406;-1.9297684073559864,-3.129862484042365,-18.613839414105176;-23.30960602574808,17.705234659441565,-5.847501150797679;10.720494832012148,-1.3542956206345114,2.728263113706248;-6.355382054952207,5.7371735843242515,-48.180089294033806;-0.8534356987407841,-5.463345275366409,-20.93461375807222;
41.60624394345476,-64.7642732666892,-33.111067193181086;27.112906427132113,-17.764808104923308,-21.837360502792844;-7.606213067296476,7.6065042617992225,-29.96423908114302;7.55799019146792,-6.5856698286919295,-23.465228744284573;4.423714755110625,-1.5884083416475598,-40.09107307330041;-2.8610221390305903,0.7687432823385371,-59.651060680457135;-1.2707043257157409,2.816738868549749,-30.50845192933483;-0.7507654373366597,2.9492186839471795,-27.53433514362165;-1.3706578739566122,0.5325281640964827,-43.802664238293325;-6.612462915354996,0.30293354698138986,-16.80930355525716;-5.651427325669542,7.5841404608937,-17.583101944327666;-4.811624088105759,0.7944248901128088,-49.72010801178055;-1.9415131739681575,-3.125954327482492,-18.777286850525712;-23.309605973358835,17.705234619645065,-5.847501137655655;10.430941016754314,-1.3661852514159545,-3.311267495630233;-6.4527135212239415,5.853195093792303,-51.539405837813945;-0.8187797543523013,-5.4763324927873995,-20.125702106568593;
42.982191374647414,-66.1066357189892,-38.491127592811885;28.370677499481975,-12.721532080975285,-19.488705351171365;-7.786560988544279,7.704949315790988,-26.976375279293933;7.779485495251042,-6.67610432521648,-20.623890356237357;4.781828029132998,6.037303608435252,-37.748159970894456;-2.8586763075748665,0.7644820274871638,-62.064515360505396;-1.2904459709417804,2.8281091936815566,-29.431461678555642;-0.6668869354968964,4.883502141279605,-27.1564105407774;-1.374806240681405,0.5366874954000337,-46.61774158992661;-6.57963778555436,0.29309069761304607,-16.456551924301365;-5.575510017923506,8.868339199345494,-18.200515674458742;-4.847983307124543,0.8395404555112136,-52.31780930655995;-2.0253276243023737,-3.096446775351363,-19.941936024058585;-23.30960592119861,17.705234580022765,-5.847501124571054;10.301030860256045,-2.749320100451399,-5.63521996447944;-6.483411332140275,5.89316031213654,-52.65787228818772;-0.6932691162240477,-5.518698252831447,-17.23041829307279;
44.049127486860755,-67.37473869240995,-43.07964789359721;28.49710949310851,-12.161328916178167,-19.22196475097099;-7.857188662054569,7.7404975996718335,-25.826329923257212;8.073823367625337,-6.777275279806871,-16.924356344713193;4.935570856866379,9.332099564501402,-37.48929343155241;-2.8592501953254272,0.7655544792426202,-61.46259725344485;-1.3597834386442322,2.8643512165513463,-25.731243311666553;-0.5469636348670522,7.3787205102462075,-28.742851877562856;-1.3821675162661642,0.5452762877309082,-52.05587607494336;-6.945711899737676,0.4161132820165817,-20.432596063578604;-5.402884974278278,11.196580725003596,-22.666325291452047;-4.90318725113676,0.9170809637865779,-56.586836815067414;-2.0077778686824823,-3.102816147276572,-19.696739237105838;-23.309605869265667,17.705234540573333,-5.847501111543437;10.089686042447672,0.4580985560293298,-10.81689447538692;-6.6911408734172895,6.213884157260123,-61.13653131788312;-0.7244220110974784,-5.508846352654352,-17.944692799574856;
42.18550954978167,-65.29370748616161,-35.31233474899815;31.094326342093627,4.497310679010775,-10.89771609936109;-8.566422423538183,8.005330368609197,-14.78134854538855;8.588937922270604,-6.904586558824746,-10.607163858512223;4.349048152123243,9.249247150053245,-16.893454234706;-2.8538800990820987,0.7541908412171584,-67.69192198145268;-1.2938096673025747,2.830022637679116,-29.248504508617863;-0.4323315225183622,10.206051870547924,-25.93113902350737;-1.3860613992919772,0.5505550427015594,-55.20496677636505;-7.287748018552942,0.5577567983944742,-24.245948626219207;-5.148852265493254,14.720447819765194,-26.51439427872943;-4.773768750287373,0.7518383350234081,-47.16499538611808;-2.2614842353094335,-3.0029013782255882,-23.272864142534253;-23.309605817558303,17.70523450129543,-5.847501098572385;9.449798334186383,1.7107100168986258,-24.94066449582238;-6.119936521476051,5.5043596314722665,-40.82774333667077;-0.37688014862010066,-5.59571943019338,-10.11095514630452;
34.78899007809374,-61.220869821442896,-11.378219340306558;31.206071115609355,5.832738903683987,-10.206768488619113;-8.431707417004125,7.96691926231616,-16.82458542303545;9.245147160255524,-6.982160260429484,-2.7236100051054697;4.044447456328483,3.5345524558969084,-16.363040209251572;-2.867513217646872,0.7785927594274654,-53.812050840987936;-1.4243587891608926,2.893077351270126,-22.387482997884163;-0.5070781158240801,8.510112679183136,-26.451756098032476;-1.3634383206405138,0.5261363277159982,-39.166579135368124;-6.688938544600358,0.32679224756582687,-17.63386544521063;-5.141516859111616,14.981067905185656,-25.27565405441701;-4.609050765731611,0.6020348105576698,-37.16381608433509;-1.9945146698045617,-3.1075010517510484,-19.512883664787836;-23.309605766074835,17.705234462187768,-5.847501085657469;9.798553130687484,9.790904873428033,-15.308102898435049;-6.160390341618785,5.540338934915747,-42.029879133859055;-0.38196966663547816,-5.594752406974674,-10.223495951763722;
33.22382404816391,-60.91496431780331,-7.02378836060655;30.899974828168034,2.4935480182057557,-11.92980540340935;-8.613455568462053,8.01787499809769,-14.071816061753697;9.97831086838153,-6.96082035243481,6.047197733786889;4.050946286043019,0.8382906855063794,-21.518459979662218;-2.88314687120705,0.7959706157025174,-42.223249900517175;-1.6591210679220953,2.9630799205381337,-10.7826186709344;-0.5313351851497479,7.933856107047193,-26.82662196781564;-1.340209799323338,0.5113078511052475,-25.883846060282366;-6.189019956448887,0.1924750849987783,-12.305982724686785;-5.184632748589515,14.213439823911473,-26.210432056293026;-4.372552865704193,0.45974353562514275,-24.754202050117122;-1.676068600698045,-3.2069058319590815,-15.137983505496338;-23.309605714813582,17.705234423249056,-5.847501072798279;9.929600560747508,11.787614373955282,-11.340128777651513;-5.6533976260504115,5.1818110621651545,-28.214364460302278;-0.1288016728472921,-5.627833189287702,-4.643680312492993;
29.237059751442363,-60.773283186012925,3.5886695960837542;31.128552525055127,4.885216706590186,-10.69728798913351;-8.610996212466556,8.017300030644341,-14.108096616187291;10.40606655683333,-6.894756897476222,11.227310769613519;3.9575739540943147,1.4792496341003967,-17.211120605617268;-2.9093152532916795,0.8139151195963665,-26.443860062174522;-1.8378116550123493,2.983578017337239,-2.265462676888859;-0.6247423184460352,5.893551908959335,-26.542499705421296;-1.312711662095577,0.5018921379704027,-11.902836427710032;-5.378967149480121,0.0764190169484612,-3.889147366775253;-5.29877760163825,12.506150300530956,-25.584836571873765;-4.118832669899501,0.37341300807614136,-12.705143085764194;-1.2425620367343377,-3.3009387719552405,-9.322416205632402;-23.30960566377287,17.705234384478,-5.8475010599943955;10.093138388483023,10.744873457353822,-8.485621733120306;-5.401659002775883,5.0630548606378465,-22.030543072767486;-0.01573567734795639,-5.6346265908261035,-2.1680810116455476;
27.788506502362246,-60.932487701520714,7.349880971966954;30.81151455555728,1.6768135835388263,-12.34869887709942;-8.470443018085433,7.9786555527479885,-16.234499102322165;11.131204430001688,-6.686568940815186,20.272051877714322;3.840178162455202,2.1149859828564943,-12.225209465059157;-2.9185116694771533,0.8180042396088536,-21.455812919781685;-1.9009237386211641,2.9844094864367787,0.7186741688306775;-0.6019680012974423,6.454907756191808,-26.041685192687478;-1.3039260891030668,0.5003856831744701,-7.598863336068364;-5.143150010669799,0.06537879856131112,-1.4653888548917724;-5.117688940006704,14.775141669559993,-29.991790735409076;-3.9710607802309115,0.34907444684012146,-5.9774958175565445;-1.0285607782578288,-3.330643805310938,-6.490990547846275;-23.30960561295107,17.70523434587335,-5.8475010472454105;10.010203958936566,14.165501268876927,-7.930570547042732;-5.243818616119145,5.005059607226453,-18.299862265206535;-0.011835303919227269,-5.634656988918392,-2.0838583561232706;
28.092690687927302,-60.889662118383995,6.562353026294444;30.519854877056396,-0.7299959101310929,-13.576359988851172;-8.505565658809873,7.988884537996357,-15.700564297416953;11.175205684086345,-6.669850050875258,20.836226735871232;3.8256125229412463,3.3615923423708867,-9.560440133836538;-2.922120138215172,0.8193535069140572,-19.553038599838327;-1.9344292389231381,2.983539079165022,2.305848779112372;-0.4637745245196918,9.457713060713255,-26.48924429808771;-1.3017802643853424,0.5001185392598079,-6.583002871392203;-5.115195891921771,0.06470741491393572,-1.1784665552544809;-4.882602792456925,18.372124918544145,-28.245454827064542;-3.9214548945500867,0.3447997458493717,-3.743112484223964;-0.9799521108572169,-3.335907950206157,-5.850318089281275;-23.309605562346544,17.705234307433855,-5.847501034550913;10.011481764175969,15.212744203907814,-7.044150806751338;-5.324197877186395,5.033137450761641,-20.188434674787686;-0.0728121830592629,-5.631768425107692,-3.4173785359130253;
28.322506743791617,-60.859978663815475,5.967446187758895;31.167054577214714,5.337817419182937,-10.463228464574186;-8.795581579996819,8.059469524066962,-11.344892406888919;11.18083900519781,-6.667755194801456,20.908600548554244;4.187958236976802,-1.9544828243905517,-31.944737408042297;-2.915380703118082,0.8167164740122504,-23.139020732627742;-1.9440728473809603,2.983143741258886,2.76322995786726;-0.5461810770046577,7.278484123162489,-29.843496166404933;-1.3023736116040185,0.5001731281846734,-6.859605176374327;-5.179291478981165,0.06637222269107368,-1.83673656994271;-5.080696592975078,15.634343084504463,-27.389702586734693;-4.033511974174046,0.3571974093566195,-8.805657797697545;-1.210403361507088,-3.306010949541784,-8.895569933639624;-23.309605511957685,17.705234269158282,-5.847501021910503;9.995543813893727,11.0904265040012,-10.355526414765317;-5.580907018484549,5.1440061893767055,-26.39727308158772;-0.11669697020021924,-5.6288944327425074,-4.377011293864429;
32.204553183998996,-60.795575421393444,-4.2581134156164495;30.677860769188868,0.5270753225815596,-12.936417455395047;-9.355041360553638,8.13111892935286,-3.096868877456327;11.182066252327981,-6.667088200133303,20.92448955877964;3.7362611546533144,2.957019601525949,-7.390722672415901;-2.9346789448335397,0.8230295387423936,-13.0720799192212;-1.9957723932472913,2.9794663649508752,5.21318547860105;-0.47495043409177073,8.94186382060043,-28.99674141633531;-1.3058596724984222,0.5006730141996132,-8.556845686378676;-5.311781421712268,0.0722863595436386,-3.1977804409738386;-4.938196448443625,16.587542384335105,-37.53059409580415;-4.216555537921579,0.40034281031045305,-17.254783097541914;-1.6163653366548343,-3.222263571864267,-14.330145222325783;-23.30960546178288,17.70523423104541,-5.847501009323774;8.518387529854198,11.807517121349708,-45.91429968390579;-5.916988791939131,5.345792509556092,-35.11058497966341;-0.12281212217049037,-5.628232549053221,-4.512443712517474;
31.434686788961113,-60.74314894546874,-2.1962984423131395;31.145405314212418,5.0810711117875424,-10.59600090253867;-9.269320394145279,8.12542692228491,-4.352802246864419;11.039617912069659,-6.719975515960174,19.10402235455107;4.81752244925613,3.305803791160014,-45.11027387916438;-2.901622927369226,0.809255928939087,-30.90210612304319;-1.8408375388460982,2.9827530388793657,-2.1279891319118907;-0.48171564658288596,7.662305055683,-40.12232421757936;-1.3970077863011512,0.569998219035235,-65.93880704739017;-8.542217784797536,1.3485853859975698,-39.580921580912076;-5.107958750545254,13.57126309779106,-42.054442900797085;-5.03839536893881,1.190215725210559,-70.27927633294186;-3.5009989193330777,-2.193727238247844,-42.79653543096365;-23.30960541182056,17.70523419309401,-5.847500996790341;8.386187677697457,11.663473399523394,-50.154712007052595;-6.669632708106497,6.175921743887199,-60.16960208875118;-1.0616295563067466,-5.37283238088171,-25.897573073377938;
35.88280454077251,-61.52708212373317,-14.514058312357326;30.68241204996891,0.5752622723858245,-12.911615538067874;-8.249731112211713,7.906363681793703,-19.61955365817809;9.816068259401543,-6.974374555771872,4.100702794068451;4.251957893511129,4.755249806707509,-21.10216649368631;-2.854278864479145,0.7552585964047698,-67.11955369161598;-1.1215253522813524,2.7130362182208927,-39.10742826452238;-0.3655342304266975,9.41438976357982,-49.17704990999435;-1.4072170577624896,0.6127304285999376,-87.16674376551282;-9.288936692131253,2.103482465108856,-50.54730609850315;-4.860483621106419,15.883207250058081,-57.69433541841765;-5.105431426784535,1.768224936582988,-96.57529676139009;-3.91189530802492,-1.7589079429826824,-50.66136696306072;-23.309605362069167,17.705234155302914,-5.84750098430981;8.376461385250078,4.467146962965502,-54.19711002786407;-7.007770417826176,7.585468854489925,-92.69772618517442;-1.812058694551736,-4.825895462718183,-46.30616819562324;
36.16110357794651,-61.61951173544877,-15.328914749258523;30.69650886506559,0.6855920134722551,-12.855452753318168;-7.842901954388002,7.733424516912222,-26.058276443274103;9.163200151816184,-6.977667538263072,-3.702707216812155;4.166225474094509,7.139882038365097,-14.246369940134644;-2.8766961589751583,0.7897172553395025,-46.655219955160135;-1.4200038667605703,2.891393378029373,-22.608700424763875;-0.3821189156478112,8.821208108026845,-52.050338630771776;-1.4073662217676721,0.6169425485091651,-89.19305876370876;-9.174371538513405,1.9668858731500543,-48.70955940187682;-4.968412219395283,14.328725791990777,-56.96873253020938;-5.0933212042606115,1.8506047862701438,-100.30613916630463;-3.788455219224101,-1.90338378595711,-48.16479938948844;-23.30960531252713,17.705234117670916,-5.847500971881784;8.36847925745444,4.635732091066529,-54.43826851794906;-6.998197514666149,7.718165541699914,-95.64313271188112;-1.8974965853021026,-4.731799356429349,-49.08477984516282;
33.75933800268076,-61.001908567463246,-8.497200899628794;31.201729458348876,5.764876445626302,-10.242131521164692;-8.036779433050562,7.822713922238904,-22.952237458891055;9.411785779356936,-6.987447803015832,-0.7334550405145128;3.998709630573731,0.28412877539127845,-20.823178239900553;-2.8784310739623185,0.791492806144633,-45.431438103090876;-1.5041765630688675,2.9228503339681033,-18.3568179008944;-0.5571141166702922,6.7370316614141466,-32.683023961150646;-1.3974535824477905,0.5709861957231541,-66.46204359643745;-8.517889848631508,1.3259497768683262,-39.23878028684124;-5.18138129719188,13.070413386383674,-36.20995978012449;-5.075063931566047,1.3084247089964722,-75.82766681301887;-3.6515817948845752,-2.0496161285309245,-45.53424416123276;-23.309605263192918,17.705234080196846,-5.847500959505883;9.277825651769632,8.547942937841412,-27.66664081317645;-6.8685415741903375,6.614591769785756,-70.85670935871391;-1.7347350294840145,-4.903414838431075,-43.91208422389301;
32.59630467187014,-60.8322830931232,-5.3132407900033165;29.747062279728745,-5.8348458687809925,-16.14024274274624;-7.910407434822924,7.7660771481595745,-24.967508494304276;9.786397410867796,-6.9775838629881894,3.744195074372704;4.156730001644267,4.80156660408983,-17.84859238894935;-2.894507938226065,0.8050845749907612,-35.00271906460957;-1.5984026098128192,2.949904337940694,-13.721195561503366;-0.4056674208041578,11.476112094336987,-19.75720459736588;-1.3456538329455578,0.5141468857701051,-28.842158381315645;-6.608008257932986,0.3019862064992668,-16.762619954120602;-5.108785157345007,16.561292927635407,-16.313683679786553;-4.471978492503168,0.5111050749374395,-29.777635635943646;-2.0987938345434785,-3.0690169119202158,-20.970109776431805;-23.309605214064998,17.70523404287954,-5.847500947181724;10.3309241478065,14.829898426029741,-0.6639888015557318;-6.018142511461825,5.420979738928542,-37.90876698663998;-0.9040855249316433,-5.4431571316598895,-22.1256826576445;
34.11052321678687,-61.06822039780437,-9.471678317338498;30.007288208708395,-4.247294150699454,-15.348575871841657;-8.278184247781715,7.916542805054439,-19.179693285190314;10.09511157264768,-6.946783696927682,7.454108305011598;4.280709673515975,4.338569620078406,-22.821608696295495;-2.9137101890948913,0.8159811218636752,-24.045393491138494;-1.7386262669747716,2.975560110777826,-6.973839521491126;-0.4203324447249366,10.670400353182629,-24.09951163943458;-1.3281952825188146,0.5062570240152529,-19.620951598885206;-5.830724618342238,0.12606976717778995,-8.559278580178473;-5.122437787340741,15.91487478814661,-19.95331644355468;-4.274971901756922,0.4193704416857523,-20.013611044407245;-1.6531810387366794,-3.2130404604843985,-14.827477436688604;-23.30960516514188,17.70523400571785,-5.847500934908936;10.219812834736347,13.986815223895274,-3.658218129687052;-5.60110410288658,5.15437666183493,-26.90213563408096;-0.6025050221278058,-5.545126390936534,-15.165399679570461;
33.99610518969472,-61.04558530733123,-9.15330664116772;30.12934311699504,-3.4765191218998703,-14.962927568634417;-8.737226239800147,8.047058132727066,-12.216059849650943;10.407931937481822,-6.894404955195977,11.249843248155097;4.222948311468713,3.333275468350931,-22.678988307007387;-2.9149649776350133,0.8165350352875411,-23.366010404084783;-1.7527091942347548,2.977206439733085,-6.303710404804857;-0.435297415420682,10.253391836938688,-24.922515526321725;-1.320344142998853,0.5037763783716431,-15.69171651922301;-5.421791018136182,0.07952139598981922,-4.330065377313231;-5.085967401239617,16.276238133058225,-21.369478428541093;-4.195892017755843,0.3933965578287871,-16.27688392699214;-1.4394974562787433,-3.2638781618963177,-11.948094210094695;-23.30960511642206,17.70523396871064,-5.8475009226871375;10.160306315917145,13.600590414427298,-5.199609923032899;-5.377585301047078,5.053658157463294,-21.45908241478297;-0.4371186410509664,-5.584202746434621,-11.45063117078616;
31.130692442243838,-60.73169000834194,-1.3874567297914542;31.38239647452634,8.382138221324006,-8.882518469046264;-8.498449403915545,7.986796110101983,-15.808375449372557;10.523889134055171,-6.869445370355377,12.669930325154812;4.293060019497269,2.3150803494807617,-27.000701633152218;-2.9144472825018437,0.8163054232324661,-23.651202184380658;-1.7676838171037141,2.97874489960511,-5.5902106836499925;-0.4815276248203269,8.62582941319031,-30.59274819377182;-1.3182301123695621,0.5032008534128913,-14.629486544121056;-5.382091689619525,0.07666609899435872,-3.921396764076034;-5.178843434949096,14.451012315871154,-24.997314522992472;-4.2360597675486975,0.4058350107904446,-18.1633333986936;-1.544007892839188,-3.240540003990945,-13.35153590749492;-23.309605067904045,17.705233931856775,-5.847500910515959;10.167901193716514,11.874515011686332,-6.231821371711188;-5.324620051226635,5.033350630791894,-20.19974755587819;-0.3732178978154124,-5.596383658671938,-10.029396571638033;
29.734396159412377,-60.7445682520377,2.28851373941729;31.1579716919441,5.2382906091332755,-10.514597150969369;-8.228572025207788,7.8987999808819955,-19.94654827269855;11.0453497078698,-6.717923157159443,19.17721524982217;4.096551712682926,0.02325307611114691,-24.646684429696407;-2.91984662587072,0.8185195012236,-20.749824595463352;-1.823757312436396,2.982932731113809,-2.9318025500977445;-0.5827076859340425,6.416754952415824,-30.329874588499436;-1.3154463189442296,0.5025075936240618,-13.252251941274064;-5.336174450160816,0.0736735873116462,-3.4491756378631155;-5.324267784698148,12.529622381615027,-22.27635063878005;-4.187063064013363,0.3908341633154292,-15.865691339828807;-1.4918422691550186,-3.2525350911292925,-12.650362819829908;-23.309605019586378,17.705233895155132,-5.847500898395032;10.302283296119935,8.646324658699388,-5.111667931364249;-5.280851539651518,5.017546638450122,-19.165865394364605;-0.3783700224768976,-5.595433888375928,-10.143649134268497;
29.75683783068799,-60.74376321368145,2.2294422041504554;30.870454125381624,2.2157209098752078,-12.072380634598055;-8.376948045980866,7.949890087514728,-17.660538536378667;11.175656629440114,-6.669685894051882,20.842015342820027;4.050989855687771,2.4995748068674555,-18.43347354989851;-2.93167564221018,0.8222887358022448,-14.603797171362462;-1.9107534389054368,2.984273552427467,1.1853560819701148;-0.6304507292788142,6.011150450054911,-24.35145380361919;-1.3081187507801835,0.5010230748831275,-9.65798958700114;-5.1373880457063015,0.06522963765280121,-1.4066137663392944;-5.49933472807929,10.137726928457655,-18.606373562927402;-4.127933742963846,0.37553232904377676,-13.122799856522718;-1.4224809901215951,-3.267428196664831,-11.720579671814736;-23.30960497146762,17.70523385860462,-5.847500886323996;10.280524178212806,5.360542789293559,-6.593790465258536;-5.092944966274382,4.95998256569863,-14.804329207232222;-0.2548011038542013,-5.614490096953857,-7.412337251290744;
30.387561197520323,-60.72505486969532,0.575975711036179;30.991420640366385,3.3923373261353014,-11.467635575994992;-8.386350064238995,7.952982104027016,-17.515498155159037;11.174839612446313,-6.6700360084593555,20.831570563003865;4.001826572146376,8.225620466422386,-7.209042379815958;-2.940505211277286,0.824230642715735,-10.118847771667422;-1.9498199608279272,2.982812556625863,3.0319964058824667;-0.5633611909186582,8.555127595404524,-15.141999424541158;-1.2953026463247224,0.4995479811526633,-3.4509601306677524;-4.818026359773723,0.0665129654300265,1.8717436070585514;-5.563289634648066,9.924931075384666,-12.532093720208799;-3.984339462191662,0.35046848344872084,-6.577258998444101;-1.1055165211041456,-3.3212735315785333,-7.507037653747847;-23.309604923546313,17.70523382220414,-5.847500874302489;10.481873679798516,3.5141961594105275,-2.640981504453922;-4.766406205048472,4.89556062512854,-7.411909825569893;-0.07078421922966616,-5.631936187239022,-3.372517320401734;
29.86221438333063,-60.73915618283916,1.9540185225694806;31.028407456736883,3.7765219935212655,-11.269663690216186;-8.385767815737234,7.95275211345815,-17.52466702813546;11.18183114850812,-6.667294352722364,20.92136576531043;3.989082174610116,6.902735687987094,-8.894324243750006;-2.9386663575892493,0.8238874149891806,-11.043067988411728;-1.9546793086700005,2.982560780085767,3.2643282326345666;-0.6120066685936129,7.33149681907169,-16.42226876604319;-1.2990403282264062,0.49983060241404775,-5.245982429185865;-4.826411519952869,0.06624039790628822,1.7856667101747092;-5.5902326636332855,9.48906951273759,-12.318346464559735;-4.0124746575664005,0.35407156892128766,-7.849755884170001;-1.1322803653032427,-3.3175747705464396,-7.86119728971558;-23.309604875821037,17.705233785952586,-5.8475008623301505;10.487532735525026,2.406083753284559,-2.5719893683458714;-4.739465954628674,4.892212406490297,-6.811915937311191;-0.08200743508057906,-5.631210806787589,-3.618564837793567;
29.89250267888459,-60.73842539019351,1.8740288171300392;31.25520061038563,6.464563590565202,-9.879334157167516;-8.122317223783103,7.858113900710404,-21.604015868636903;11.182224510980854,-6.667072722290477,20.92641444493701;4.04414682645044,6.5702393300700965,-11.207196734695396;-2.9376445335592534,0.8236753182617618,-11.577746160981256;-1.9545707899453129,2.982574221509051,3.260321228264841;-0.6770034359924912,5.5749955493659265,-19.091705873033426;-1.299499566150802,0.4998769978300124,-5.48439111900791;-4.732374637410798,0.06998536297384295,2.751242080265463;-5.632424641362967,8.421562652494302,-14.420091660220024;-4.032111488653474,0.35696377827185066,-8.743029246566763;-1.1298702138167005,-3.3178855853854907,-7.829177991905333;-23.3096048282904,17.705233749848908,-5.847500850406634;10.370465622047282,2.127591406895818,-5.019208570089123;-4.81834999822923,4.9029163219832785,-8.577493543334121;-0.13576424775504536,-5.627241961317943,-4.796692339171525;
30.37651908440448,-60.72518497874801,0.6049896887114095;31.205054759702346,5.806499764857767,-10.220576310066594;-8.208643230646414,7.891524876941513,-20.255537276618856;11.182240709697183,-6.667130555393643,20.926725406497066;4.031920438839711,7.545967772170973,-9.243624468835762;-2.9392381245825145,0.824004420323516,-10.737623253276329;-1.9654074421060863,2.9818851285711205,3.772943194221229;-0.6318213314180218,6.712331300313367,-17.963625002623957;-1.2951857940823766,0.49953993207805125,-3.393814390389217;-4.595382900715158,0.07827484205158175,4.15903192898412;-5.559155101100061,9.491160390538184,-15.951650094232786;-3.988837123260306,0.35100276281852383,-6.781887152320287;-0.9906351973032859,-3.334848374169143,-5.990931247429174;-23.309604780952956,17.705233713892024,-5.84750083853158;10.242788679417302,1.1292689484027107,-7.653944780294006;-4.757010549560774,4.894342325440839,-7.202014742464286;-0.12270478594918477,-5.62835842216055,-4.50963599633705;
30.98696642508787,-60.72823253827463,-1.0071147668785265;31.214007357445055,5.920952970448749,-10.161215706078123;-8.29645671971089,7.923041950794274,-18.897057018499474;11.182292300466138,-6.667077088311658,20.927338030787098;4.04167497441157,8.634211460535596,-7.855369918716838;-2.937224858222384,0.8235980471562414,-11.76725838687667;-1.9600003733595204,2.982244336462771,3.515402334243433;-0.5852838023259006,7.773209780720634,-17.714163337303994;-1.294873507767723,0.4995209463305019,-3.2350365636615663;-4.5899044547560255,0.0786806800173041,4.215523003939701;-5.5213994070997785,10.013958363097226,-16.84521692764558;-3.9860608377239335,0.35069701859592484,-6.6561357623468425;-0.981801363551912,-3.3357269647855285,-5.8743762801106385;-23.30960473380736,17.70523367808089,-5.847500826704649;10.232794887493544,1.335311685600911,-7.877892393026059;-4.7362857978869695,4.891828371270056,-6.740612911346034;-0.12617397604596992,-5.6280709787643195,-4.586200987766855;
32.309869490673634,-60.80462542024077,-4.541504752603309;31.361994866910006,8.04561765702368,-9.057717648119644;-8.403196015390234,7.95819328403567,-17.25937880690283;11.103237783893956,-6.69705003908495,19.914287311963044;4.11215629588493,9.59962614778793,-8.647160329295595;-2.93646592780755,0.8234389616091127,-12.14612599270227;-1.9653814838678467,2.9819103218198295,3.7723436212427206;-0.5466374842922118,8.584295560297425,-18.066430909549617;-1.2960770049720525,0.4995953371286136,-3.81162611311116;-4.6518017414772785,0.07445301453018449,3.5786102613445365;-5.450175083176752,11.218832371898362,-16.83090504432549;-3.9755186208664193,0.3495276170826732,-6.17847000395723;-0.947066670296185,-3.339056335579825,-5.417626490346144;-23.309604686852218,17.70523364241446,-5.847500814925483;10.210724849134566,2.278309287685812,-8.374029838170504;-4.730930315319386,4.891227737852355,-6.621303680693146;-0.13651879242873077,-5.627177332057427,-4.811969806753641;
32.982719414863375,-60.87933982468506,-6.363237625541213;31.364853551006032,8.087856410658627,-9.035753349294655;-8.572649883766609,8.007342673099716,-14.685611899734761;11.02262839917173,-6.72602700326262,18.888268129267885;4.111564389566184,10.104978651103302,-7.869859035843321;-2.9354007002220657,0.823196794690467,-12.704935333650877;-1.9611271331424414,2.982162558722571,3.570415151185582;-0.49807112168160217,9.659093403421673,-17.996273998333304;-1.2976712348548083,0.49971421102557284,-4.596984404258116;-4.708935502714093,0.07115346228552943,2.9917897230658212;-5.383022535798085,12.248039722960254,-17.333759068737915;-3.9863000985365082,0.3507016156786871,-6.665641494587838;-0.9420267399423583,-3.3396227476533733,-5.350806585997937;-23.309604640086192,17.70523360689169,-5.8475008031937605;10.197604197174856,2.056301209195837,-8.649087765525191;-4.7096777231974905,4.888784398215261,-6.145338381130237;-0.13318076689555114,-5.6274985611959645,-4.738892516051806;
32.81515413829278,-60.85825729175648,-5.907654005433777;31.027255607622624,3.7650359189601454,-11.275622961415992;-8.75351692494101,8.050643958514117,-11.972368232533826;11.04384192116046,-6.718592634095859,19.157538303273416;4.102334658747661,9.809452205091922,-8.015239038185697;-2.934206857541511,0.8229236229642962,-13.304934573684172;-1.9514316608497517,2.982736665917385,3.110540504011352;-0.5171158717343713,9.26716151226598,-17.772566748085694;-1.2966876327966024,0.4996384744436478,-4.1156115717315345;-4.716621863527665,0.07075913902179654,2.912931013115788;-5.438664714022888,11.30821600162607,-17.55796769946007;-3.9689346293043295,0.34880367707123283,-5.881362428818633;-0.8944811243031767,-3.3437927393014624,-4.725402631339708;-23.3096045935079,17.705233571511563,-5.84750079150913;10.195074143999491,1.2246521453719632,-8.665320680607273;-4.691141617477867,4.8868711612906655,-5.732648611596645;-0.13258264968640643,-5.627526733013406,-4.726670352913011;
34.170864101516365,-61.0807148438187,-9.640428107662672;31.261426084088342,6.549144027204074,-9.835443090876794;-8.602915545284366,8.015166342474,-14.230271899446198;10.91545896160811,-6.7619271069411315,17.534096533028986;4.184129363047563,10.99220869382587,-8.897070958717892;-2.936169855442013,0.8233729910078614,-12.300228719210104;-1.9634107585356282,2.9820391528936607,3.6785225855325514;-0.49170731875424767,9.971832459014854,-16.496073225094815;-1.2958642362982626,0.49958274019344334,-3.7143699130274968;-4.679435891499367,0.07279523709843527,3.29525794705404;-5.440672627718232,11.29684533820021,-17.398653304677627;-3.96553176187359,0.34848779231883875,-5.728614726903267;-0.8915991321595367,-3.344008839311511,-4.688474120428825;-23.30960454711604,17.70523353627306,-5.847500779871265;10.164545748393016,0.5309527600639106,-9.242521257100552;-4.6611963061279225,4.884072064076378,-5.065298062145217;-0.11558169081418601,-5.628849350285021,-4.354014672157842;
34.09975683750497,-61.06543492158033,-9.440657621824577;30.434045221306278,-1.366199615175232,-13.898776556433571;-8.761488268425314,8.052365648530754,-11.852994624729167;11.078934163113132,-6.706025567918194,19.604242929903513;4.144608639871365,8.959509251169372,-10.66781023196285;-2.93266464991029,0.8225592765301002,-14.067439484401788;-1.958346457150012,2.982337847717332,3.4359140822475602;-0.48860510404857577,10.067905498257874,-16.24367993552699;-1.3049030657192862,0.5005163658761368,-8.086474859541546;-4.881526280057383,0.06478631246011268,1.220095508589523;-5.430819647653475,11.538616781355033,-16.827234495018022;-4.0546156827580475,0.3605942706697215,-9.764051718469894;-1.0320331819454451,-3.330266523888695,-6.536363861062618;-23.309604500909263,17.705233501175165,-5.847500768279825;10.176250394386184,2.1282507618556528,-9.100258805126021;-4.769088418873619,4.8959035958688855,-7.472557736316162;-0.1970226693713677,-5.621427187009689,-6.139484375701656;
34.113139202075395,-61.06830431259295,-9.478274031012276;30.566402379883336,-0.36981515980191215,-13.393286252272178;-8.627425447883745,8.021418875015657,-13.86044423416022;10.907160981362189,-6.764611719420565,17.429770143727;4.166147022625092,7.4082882530277985,-13.8071544186226;-2.9292808918249174,0.8216392670490513,-15.831666444089997;-1.9571464875397953,2.982412109792152,3.3802367759644287;-0.47525029646502065,10.164918880529626,-17.947009229697613;-1.3074332621179356,0.5009049709048922,-9.318822014546832;-4.93524348628301,0.06389930961215273,0.6687900501840858;-5.43698575761644,11.368452945607508,-17.32465676134342;-4.089646074401607,0.3671471950918278,-11.362229402050197;-1.0667531306816067,-3.3261295095613095,-6.994717626377998;-23.309604454886284,17.70523346621689,-5.8475007567344885;10.084932292187512,1.7874314979340413,-11.02478138447298;-4.863431131810244,4.910115087395347,-9.589374217411745;-0.2442434271435292,-5.615881436778464,-7.178707785178069;
35.260481249761995,-61.34264552028756,-12.71906130559164;30.626495768781403,0.1065022839587717,-13.150906838223912;-8.791223428000341,8.058512475463063,-11.410549093960496;10.928290882923765,-6.757783908562525,17.695620990732287;4.228448212707452,8.444535476005488,-14.189501217724036;-2.9256764572140654,0.8205631523117379,-17.67741410113861;-1.9445333157632316,2.983104743377114,2.784019057337158;-0.46634280490533486,10.130914119946246,-19.943970090829787;-1.310804968638567,0.5015091823401874,-10.963950575660153;-4.977074506547858,0.06357352000844152,0.23944595509271238;-5.375404459195682,12.210867761109125,-18.511267899154156;-4.091737407956693,0.36760698469336006,-11.45992504163953;-1.1080684112097858,-3.3207974970514513,-7.540840860010757;-23.309604409045768,17.705233431397254,-5.847500745234925;10.057573537099199,3.7536797876293986,-11.548237248871281;-4.853181825649505,4.908453394291779,-9.359926698168664;-0.2383533353940439,-5.616576587549203,-7.049230886824741;
35.09378722361597,-61.29677390196991,-12.241534844845479;30.478915230732163,-1.0401895043510367,-13.733791686705864;-8.892949761321331,8.077924238374617,-9.897907080238133;10.811478201567015,-6.794072503404128,16.23057876561238;4.200768061102946,6.840460447034316,-15.86247467288472;-2.91925132256951,0.8182767272244275,-21.088071297510787;-1.9194867212445779,2.984047016991004,1.597893936670948;-0.48669024883433887,9.527226437785835,-21.340466402041844;-1.3178918737787144,0.5031041197941497,-14.449552088033847;-5.127618774047772,0.06497285070946424,-1.3059675510412951;-5.399252593085985,11.660081702437882,-19.709865572130575;-4.153522942178333,0.38173995980206965,-14.304583506239034;-1.25576037571892,-3.298767620498417,-9.49740069301389;-23.30960436338646,17.705233396715265,-5.847500733780815;10.090941925799635,4.446977895457526,-10.755997079540528;-4.964500299842418,4.929331137331179,-11.872171796910933;-0.29213773370507545,-5.609397474807508,-8.235419704588331;
34.114130616653,-61.068413275860564,-9.480875256399715;30.12877097288469,-3.485886152671139,-14.967922309419553;-8.900897975746183,8.079326438821886,-9.780230327797733;10.5822402160193,-6.855756274599292,13.3874470481964;4.195460806195333,6.941931657300232,-15.52217863943706;-2.9203328373504274,0.8187108232816903,-20.48269813187374;-1.9228939890683792,2.9839485410075017,1.7582163287542425;-0.4959736728634943,9.373915848216683,-20.896394975097092;-1.314997457395684,0.5023997167882054,-13.024758570917157;-5.097706601806644,0.06436824073716196,-0.9987941656092545;-5.402025736208173,11.68508004618175,-19.19473412332509;-4.166085287317812,0.38501733494975876,-14.886656028235087;-1.2878944226889364,-3.2932721545613184,-9.924247031899665;-23.309604317907063,17.705233362169963,-5.8475007223718345;9.980756300147284,4.781760383139843,-13.054742205470717;-5.036777570725963,4.945676566370663,-13.516690234471056;-0.3177121062805863,-5.605578411180539,-8.799650443778756;
33.3281285142641,-60.92997129326927,-7.3095653733084305;30.0489660282812,-3.9951129367166196,-15.222979097077696;-8.66959445782854,8.031635146618871,-13.228493356953122;10.495706053965776,-6.875807217166616,12.323946988718454;4.26360678613969,8.041186570971107,-15.980262498445288;-2.9206335812769084,0.8187991388125149,-20.3567089490237;-1.9278026538709037,2.983802209422028,1.9917236550063215;-0.5074228284797525,9.003996103068186,-21.93806732875487;-1.3145114142211831,0.5022951750106639,-12.797505651161458;-5.140050302624836,0.0652794337733611,-1.4336023321033835;-5.48247260931814,9.71325392568485,-23.629948993342577;-4.179829896880279,0.388804309128428,-15.526888366323362;-1.2791287133202216,-3.2947425935934698,-9.808083541101272;-23.309604272606315,17.70523332776038,-5.847500711007671;10.152069855007765,4.4768428899148835,-9.455936339354437;-5.01729348962345,4.941126103727029,-13.074079347992047;-0.30021405385984545,-5.608229690572031,-8.413518929502239;
32.956744469808505,-60.876157161770735,-6.292779714179595;30.023718013835275,-4.162829939878474,-15.307257859901153;-8.549161596873006,8.000963183592345,-15.041205152303474;10.556415104502738,-6.861950230382697,13.0695161561165;4.377842705521598,6.9657893248454394,-21.543811122770343;-2.921937534669174,0.819289522693676,-19.64576339318628;-1.9619097479503864,2.982117228830554,3.6055552983428747;-0.5376313864332463,7.921805866666997,-25.67016063911624;-1.311306204608546,0.5016062190831955,-11.202919125350533;-5.06258610362289,0.06388769746957501,-0.6380372126742344;-5.517948411726117,9.07103903558992,-23.77823184480498;-4.1338392403251385,0.37688495093626984,-13.394148295484904;-1.187567971060707,-3.3095825417935565,-8.593136565901307;-23.30960422748299,17.70523329348557,-5.847500699688007;10.054864813279304,3.672957466618566,-11.613241463588384;-5.064237151675003,4.9524633415394135,-14.144199771373586;-0.29752593799589544,-5.60861600865749,-8.354222389188994;
32.426519209331246,-60.81451261271525,-4.854391956853281;30.118059662437823,-3.5576028188657665,-15.004039883660383;-8.200595645837078,7.888487308833754,-20.380983740300803;10.569524035724504,-6.858822198136729,13.230830974479028;4.3873583266880365,5.251038041055035,-24.838513132826463;-2.9271720442345663,0.8210257956118681,-16.907224848884;-1.984939036343448,2.9804442016560424,4.69821627851552;-0.6006395751089264,6.472004864349968,-26.163072332416952;-1.3040220210091729,0.500397730293616,-7.669289278054073;-4.9734232539886225,0.06357983354686336,0.27714987237617805;-5.494376357873963,9.558607552626125,-23.265714038072094;-4.0678273539036525,0.3629507154098014,-10.365557123226793;-1.0823968804575608,-3.324198519377034,-7.201480438198143;-23.30960418253581,17.705233259344585,-5.847500688412535;10.2042203580029,3.6416176172684356,-8.452201314818065;-5.051622799962449,4.949300952460112,-13.855975963374846;-0.28698809396859715,-5.610179435689594,-8.121276780026779;
32.918870706044686,-60.871956649707066,-6.190910068610195;30.07663745372447,-3.825366529033336,-15.1382781498793;-8.733046019241613,8.04612744578663,-12.278146849584264;10.351253773902144,-6.905548954590672,10.55846055217192;4.347705383573889,5.575837612373763,-22.907956435858516;-2.933579350485941,0.8227734667296931,-13.622759250771988;-1.9892498831208978,2.980100734627102,4.902479507896489;-0.6221428543886438,6.249769185199223,-23.870828124542193;-1.3028505583993542,0.5002471208717529,-7.10068918728475;-5.061188363499011,0.06385767291328381,-0.6237709821605293;-5.574944722534845,8.328345279527774,-21.891739748678596;-4.0478048888846425,0.35948303791092584,-9.456248612858197;-1.0747755473800233,-3.325098298189835,-7.10117928518325;-23.309604137763582,17.70523322533648,-5.8475006771809435;10.1446252575928,2.539388657728768,-9.767942107540858;-5.049807702660975,4.948929515658568,-13.81628778367105;-0.2668130219231124,-5.6129225798425395,-7.676813099410644;
33.13315861113381,-60.90031560064561,-6.774377225094318;30.10949565596752,-3.6134281706853866,-15.032011186871811;-8.843536117126119,8.068844683433142,-10.632343208851577;10.317362529370033,-6.9118617298617275,10.146082995511916;4.412207221108125,7.358345077467368,-22.047635735227807;-2.9358321583094535,0.8232900572697122,-12.492713829800056;-1.9618159074965504,2.982125603058395,3.603152032075542;-0.5968655997795856,6.84802880368457,-23.545211713855345;-1.3019123441332174,0.5001313076561595,-6.6412156378390605;-5.092064605830876,0.06427380341810895,-0.9404342959430565;-5.551356553491416,8.97786768611472,-20.35578174967465;-4.050932885811187,0.35997519846692216,-9.595984282414143;-1.1803868424260011,-3.3106756479065513,-8.497616706001068;-23.309604093165056,17.705233191460348,-5.847500665992929;10.122496521195403,2.979677229739038,-10.223521870305365;-5.004775803598127,4.938178365840931,-12.787363292927594;-0.23856274758612273,-5.61658680183508,-7.053895089962161;
33.645589934274604,-60.98058057374108,-8.181245602036997;29.951570975294754,-4.61339968961272,-15.532472793110738;-8.799862026855866,8.0602768383174,-11.28129533885178;10.317230605250648,-6.911906426160245,10.14448371616689;4.463267862283101,7.828291468245787,-22.998186284253563;-2.9379740924331426,0.8237566278169186,-11.376758583549591;-1.9480532043288155,2.9829114431556274,2.949884155457175;-0.5668079330585324,7.610988652927849,-22.684018369991506;-1.3016167650290087,0.5000938617912221,-6.488268649623919;-5.123048006075166,0.06486633720336021,-1.2586940999354326;-5.501937635832411,9.82339529895369,-20.49253982182672;-4.0451958018047005,0.3589991940454893,-9.333655533043597;-1.1774281256343493,-3.3111200661342393,-8.458132530884509;-23.30960404873904,17.705233157715256,-5.84750065484819;10.050273858174517,2.7172887604626803,-11.76616462794959;-4.98921183601127,4.934666658468612,-12.433228826821072;-0.25743162340333714,-5.614175592971923,-7.468811219801729;
32.74703305402587,-60.85057613145962,-5.7236508358842055;30.28606066358505,-2.429453464367036,-14.436506402550442;-8.46565478630296,7.977308539251883,-16.306506746488445;10.364535723155335,-6.9029903042604355,10.72032202392068;4.46234285022248,7.7491294026111355,-23.099096918574965;-2.9382447666638356,0.8238040220812948,-11.255471479717883;-1.9276071334020393,2.9838076347480245,1.9819841921119554;-0.5873678508429674,7.0802780009028,-23.357199794824886;-1.3023155401199806,0.5001795171400948,-6.833034528407872;-5.143157179503387,0.06535881918114717,-1.4651123833513324;-5.534652278570239,9.437191492290534,-19.23202677957555;-4.039511579282436,0.35812169024379914,-9.077195158289122;-1.1976087624614347,-3.307988238514668,-8.726330327590937;-23.309604004484346,17.705233124100303,-5.8475006437464225;10.10455855563099,1.6488484446578484,-10.602963414058692;-4.909888929773967,4.918491521208964,-10.637865997856656;-0.26213578552952843,-5.613532228495011,-7.573302284295597;
32.90994883457443,-60.87018982453846,-6.165601986398922;30.176231411614847,-3.174718862731706,-14.811664873111333;-8.518394743466972,7.992513413470998,-15.506085505909265;10.599792922510028,-6.851429720954256,13.603784867405166;4.44735911713889,7.203982402023156,-23.50360491388033;-2.9377685453593223,0.8237110368807946,-11.489899967644575;-1.9155548141629843,2.984155481660487,1.413197218412865;-0.6061627138158944,6.5804892115696845,-24.089109800658115;-1.299928055296259,0.49991794682625706,-5.687044152554421;-5.103668202649139,0.0644773139861542,-1.0599845214445764;-5.574086283340374,8.778919355833425,-18.973267565440615;-4.028734821343948,0.3564156206950785,-8.586787938955233;-1.224062588052623,-3.303943508931032,-9.076536567847572;-23.309603960399752,17.70523309061459,-5.847500632687327;10.11406040706443,1.1042575194816218,-10.366479035979385;-4.91546334550104,4.919506122355661,-10.76364504897559;-0.29936814446508564,-5.608387206363663,-8.394750229156331;
33.07034856289976,-60.89115621664173,-6.602172964483254;30.09375752348574,-3.7139946771568493,-15.082409915183135;-8.679402700730044,8.03401992109926,-13.080910738410978;10.718654895905562,-6.820483439949035,15.07477657806164;4.349382032447281,6.308483741439623,-21.697698125254984;-2.9372564503338223,0.8235995693527164,-11.764378557255206;-1.9154040053156265,2.9841527519267625,1.4040743585280282;-0.6269578171917353,6.149455013498347,-23.80518554920424;-1.3004303194724285,0.49996669358241774,-5.924674645813369;-5.139515508809774,0.06525701629481984,-1.4281547493858042;-5.592354438573107,8.205155544194696,-20.60917151667425;-4.015485237758501,0.35446944295703386,-7.986360371006427;-1.1891824606944312,-3.309405454837916,-8.613737005844975;-23.309603916484107,17.705233057257217,-5.847500621670616;10.188713057055365,1.4648013245849558,-8.814920549878659;-4.972160658589047,4.930944594705316,-12.045632750879633;-0.36801859099866946,-5.597320581440204,-9.913532953176723;
33.19819087361476,-60.910203924046094,-6.953229068498217;30.526560132538297,-0.6702979958094692,-13.545809905425749;-8.701054782107967,8.03898677974915,-12.757102891304694;10.827984340068863,-6.7891066598491525,16.43682933656164;4.342503486911491,5.770606790637478,-22.391926934810133;-2.9379621575907544,0.8237417477344253,-11.412465661529303;-1.9242402983283255,2.9839189522640095,1.8220814537419727;-0.6523306997814596,5.585539658921569,-23.791718167550158;-1.3033436235441263,0.5003090376113819,-7.336713675482855;-5.233021339890115,0.06840103540733089,-2.3886460951910884;-5.609406168793537,8.019620494663693,-19.779335833176003;-4.029665601062675,0.3565769187538317,-8.629233369684812;-1.2381719649193301,-3.301625626706576,-9.264748171265927;-23.30960387273626,17.705233024027294,-5.847500610695991;10.20864085955823,1.6364217571406146,-8.400281017933239;-4.940198616726466,4.924403874238515,-11.324144302093172;-0.3581764414131459,-5.598985586627302,-9.695643662322347;
33.30549489753896,-60.92580747117479,-7.246493841092959;30.103475834111975,-3.6525534076270585,-15.051650754906369;-8.65373179962464,8.027871046537753,-13.46573829182505;10.609102764003556,-6.849149031153804,13.718581063629331;4.364429612774287,6.4018604988862515,-22.04749959428365;-2.938874765824826,0.8239265112388373,-10.941642900305752;-1.9287741866021433,2.9837593701874674,2.0369826649376463;-0.6124941424993615,6.735739466474907,-21.490723543822043;-1.3052817293198788,0.5005747302618088,-8.277833550767923;-5.293090732442062,0.0712383629563742,-3.0057000515169428;-5.561771888837695,8.918249560179927,-19.508999974882016;-4.015944898949394,0.354554020208093,-8.006975645217935;-1.2357157599688522,-3.3020389277158007,-9.2307371398846;-23.309603829155034,17.705232990923953,-5.847500599763167;10.097215147757606,2.0452256759590193,-10.771116339882191;-4.9367593375963015,4.9236667059202075,-11.244590796952767;-0.3407595106706663,-5.601893752965998,-9.310489008461355;
32.76986131218433,-60.852323176943244,-5.783892065776942;29.609519896274442,-6.623992439589605,-16.53115057242171;-8.503340114142166,7.988268206711732,-15.734300368956056;10.42027795245063,-6.89198796839767,11.400685649763012;4.326198743631032,4.860742553229368,-23.43659107931228;-2.9362691352982133,0.8233895754284819,-12.263782463943343;-1.9270717489152023,2.983808817974221,1.956817825771342;-0.6625684398525717,5.648117499565475,-21.23819332383204;-1.310208982693,0.5013881869503052,-10.659785248890344;-5.360278222136492,0.07517473519204998,-3.6968308837850046;-5.5287971743250495,9.459308859307601,-19.780715672994678;-4.0677937228999745,0.3629370865364907,-10.365573766427886;-1.3100919776085447,-3.289304823432839,-10.220121594917003;-23.309603785739288,17.70523295794632,-5.847500588871852;9.996015738527548,2.7175377923877964,-12.924042195857696;-4.977226120223244,4.932043769497372,-12.161465383028764;-0.31773448744583477,-5.60556537078949,-8.801491095772471;
33.051224758482405,-60.88935079192207,-6.551499354750307;29.840051388217077,-5.289867452269021,-15.869611896967799;-8.518235702044759,7.992431774229016,-15.508860841496885;10.36257776508651,-6.903387877762385,10.696481145352614;4.377581016873282,5.431867469573604,-24.1817667355335;-2.938680073316937,0.8238878799696863,-11.041119642824249;-1.9321889405992303,2.9836395680456453,2.197720785491981;-0.6422004143729219,5.863438923260633,-23.33811515484053;-1.3085150326565755,0.5010853963230065,-9.835330746677755;-5.29921199959789,0.07156167314532291,-3.0686629293414533;-5.492689626028563,9.942744329981473,-20.77371272850408;-4.029318851540308,0.35652781811708956,-8.615208241253008;-1.2371873745042694,-3.3017465222062206,-9.251438998581833;-23.309603742487905,17.705232925093526,-5.8475005780217675;10.147028555555114,2.588287197772396,-9.716445155631067;-4.988724439781744,4.934635696968076,-12.424189414844108;-0.32441346104416185,-5.604503934762707,-8.948248617129984;
33.161890111223514,-60.90469013779627,-6.853439133987671;29.87868427895197,-5.056254108341289,-15.753242164230981;-8.557149495850556,8.003099331438548,-14.920244222594832;10.352385066178488,-6.905319425576353,10.572417194300906;4.389991408144326,5.270629416246874,-24.894763632480952;-2.938527091152137,0.8238624374715806,-11.107120188919502;-1.9057527137780097,2.9843606614354155,0.9470595674679956;-0.6472288684633764,5.642147679813604,-24.304282589012214;-1.3071406665295262,0.5008541576892427,-9.164709094254405;-5.17972021302254,0.06641426707794928,-1.841042742802017;-5.4683392599098735,10.264386464986146,-21.446622642381957;-4.052383701753089,0.3602353712719598,-9.662373396927613;-1.2309720294893538,-3.302774831205484,-9.168286190621792;-23.309603699399734,17.70523289236473,-5.847500567212629;10.066806269757343,3.180360715159037,-11.395556753614931;-4.970180655372033,4.930580603665812,-12.002572560658658;-0.283696644968201,-5.61060126125593,-8.048533457443114;
33.14686986642751,-60.901858948846474,-6.811134153363256;29.57698799798538,-6.8056025393381345,-16.620836229137776;-8.548703936239876,8.000918255396181,-15.047137123238297;10.449518399695242,-6.8859281892369335,11.758166138933412;4.399488846518121,5.5525596235059185,-24.72082532448344;-2.937214218767841,0.8235985264817781,-11.767448792126558;-1.8995833004076255,2.9844371488702435,0.6542574074490979;-0.6346650770180486,5.7994234059670084,-25.39744495867916;-1.3083512251414393,0.501051352192385,-9.747007069901102;-5.1857798484075435,0.06660258736524638,-1.9029414445621207;-5.467793072109595,10.156515113839324,-22.278445081469698;-4.086210097184564,0.3664567805981165,-11.207365783337806;-1.2369848228030735,-3.3018720820541425,-9.248202619794515;-23.309603656473687,17.70523285975908,-5.847500556444156;10.00628760905854,3.1205120960076957,-12.688996982848204;-4.955201358928578,4.927364333028858,-11.661493227716097;-0.2708512435510604,-5.612421954179323,-7.765123680567516;
32.78522698341837,-60.854935160872756,-5.82711099059873;29.67563413787084,-6.249786394909854,-16.346009958190823;-8.254849522855903,7.908376445488025,-19.539123305361755;10.504931275487579,-6.873740457467022,12.437105961373438;4.404305182126738,5.230901221256861,-25.460529368269825;-2.937139504230999,0.8235768168370574,-11.817674438700628;-1.8868741382288083,2.9845284948245303,0.053572300012483254;-0.6261824815666646,5.843899344196637,-26.696486371865788;-1.308398487251969,0.5010668501576745,-9.783890856228744;-5.189457685851832,0.06673833592603307,-1.9408982793808782;-5.4560531832172385,10.0688542062714,-24.34281567769658;-4.080702728994492,0.3654036465970103,-10.954581327659895;-1.1812165096853946,-3.310481681530402,-8.508749510156832;-23.309603613708624,17.705232827275726,-5.847500545716069;10.010140140573373,3.5441067108499062,-12.57817252868541;-5.003669429593687,4.937977656338475,-12.76353316691735;-0.28441334337315394,-5.610495530847704,-8.065174861449233;
32.707151287802546,-60.84554349390438,-5.614933668828683;29.32928637130153,-8.14361791130683,-17.27881387217855;-8.227251835532341,7.898361891541919,-19.967418093097578;10.566995957320678,-6.859414688031488,13.199652523686838;4.449490100586793,5.811968725057674,-25.99185504496295;-2.9365764693580982,0.8234503264924845,-12.11916927549489;-1.8869713939548214,2.9845267114969833,0.06075026280923268;-0.6009755662783327,6.188634520898071,-28.668990347081607;-1.3092380338909244,0.5012126309195921,-10.188222583988903;-5.217749411988685,0.06777640283781783,-2.231859110905276;-5.442062786330224,10.141326962430941,-25.556032823054707;-4.079822821264546,0.36522554166513066,-10.913303337088458;-1.2047312087678685,-3.3069510896393286,-8.819925403259344;-23.30960357110348,17.70523279491385,-5.847500535028097;9.872277757580672,3.4392098847066794,-15.54979688461593;-5.112547812044451,4.965240137856399,-15.254425921145529;-0.3073238013127373,-5.607141772791279,-8.570833001158874;
33.13235172818142,-60.89978468651916,-6.771403972161781;29.896678404764703,-4.948155858687206,-15.699371873094819;-8.36108258143839,7.944757119378712,-17.902602729725363;10.408454226561384,-6.89437065987903,11.256306145610075;4.412217821290091,5.703627494376511,-24.892482703424857;-2.9370933692058627,0.8235685315206936,-11.838975498297096;-1.8806361436115173,2.9845051588765474,-0.24092792036610078;-0.6023119169296904,6.357158475302422,-26.858348123572096;-1.3094616256536271,0.5012583574857372,-10.31838213599584;-5.289831873892618,0.07105153471995229,-2.9723631678173135;-5.453070671556414,10.074331256625971,-24.672694144007753;-4.059848519120905,0.3615000966410362,-10.001715330692278;-1.185723254887967,-3.309887513710157,-8.56813987877782;-23.30960352865716,17.705232762672626,-5.847500524379967;9.929675642876857,3.317009283024242,-14.31985669187934;-5.088796765792155,4.958784766948797,-14.706917201672365;-0.2572396307274429,-5.614247586132636,-7.464701415689694;
33.14151430349507,-60.901847151093655,-6.797871163569788;30.02787974669475,-4.136169484642419,-15.293906050984068;-8.568549820264236,8.006194625855901,-14.748650093545283;10.350916753230065,-6.905626608629212,10.554481750200893;4.404175084295921,6.214021583709879,-23.723491123237697;-2.9369374728982724,0.8235349632995714,-11.918378217640786;-1.8701624727250021,2.984427155208154,-0.7355677510832379;-0.6071910853887682,6.37318685979327,-25.732740135920523;-1.3095515556237975,0.5012771632184478,-10.361956668529096;-5.2774975090194935,0.07043432930500004,-2.8460249670861515;-5.478693137967477,9.892625580790936,-22.8218112096776;-4.047087006053669,0.35934252472459693,-9.421009486512325;-1.2014580986701122,-3.30745379290903,-8.776859750085261;-23.30960348636861,17.70523273055123,-5.847500513771411;9.895761076122664,2.1140813278611064,-15.078825484700616;-5.106674200805415,4.963632004676199,-15.118905652292572;-0.22268615758942528,-5.618533314507082,-6.704472019831476;
33.33954661737128,-60.931392403584354,-7.340452315244306;30.34037962132974,-2.0453816133691998,-14.242482737984112;-8.648089650538502,8.026467939619346,-13.550932170634537;10.482156241291868,-6.87877491777786,12.157784812965057;4.302873557486257,5.718418333859054,-21.142905087938264;-2.93521294021619,0.82316436120077,-12.774458055894804;-1.8503024327941209,2.9840056495205696,-1.6755141414194554;-0.6377921109753778,6.002954442215108,-22.96572314526833;-1.3072377824945827,0.5008767547907783,-9.230624267554617;-5.240037190982015,0.06869085656556151,-2.460660941246278;-5.520239516772334,9.6156136621982,-19.73035370902502;-4.051639467206093,0.360114186237127,-9.629003284833715;-1.313492357580429,-3.28865818534633,-10.265709800212655;-23.309603444236714,17.70523269854886,-5.847500503202158;10.032870717483164,2.4382193407891513,-12.141531946101278;-5.033728017741879,4.944994412444265,-13.448046831277122;-0.15013240875470157,-5.626001216430511,-5.111144535389336;
32.651558698153536,-60.8386258776792,-5.462967901928507;30.515849728028773,-0.7610768504686467,-13.592141171557817;-8.619106915901607,8.019290836178913,-13.986602507890456;10.475174143901809,-6.880412153920325,12.072268163415728;4.387831023414469,6.655421577482443,-22.40734209531412;-2.931915822225377,0.8223572480969634,-14.473299366950712;-1.8217563150180158,2.9828257666752944,-3.026511188805234;-0.6060290237425118,6.536251121980701,-24.509030433694893;-1.3098552290364196,0.5013211814742934,-10.485209923215756;-5.315658346968683,0.07246125841284756,-3.23805182430144;-5.457604929881207,10.286311931343837,-22.5995871391981;-4.081133522627841,0.36544856095285416,-10.97285061248914;-1.4521540954656134,-3.2612537261827597,-12.117885832849083;-23.30960340226046,17.705232666664696,-5.847500492671948;9.929352999895414,3.68523904429264,-14.29839304164928;-5.199701818914221,4.990685317028869,-17.268581141952303;-0.19120906084985612,-5.622065475251803,-6.011675409194014;
33.66605081969116,-60.9846974894437,-8.238740944791894;31.11494202404236,4.724432126218953,-10.780423541360657;-8.636991204554594,8.023728846688439,-13.717662521518584;10.40004773381286,-6.8960371566061704,11.153532915899957;4.287650931429026,5.671684585611577,-20.71106793100019;-2.9362061790160285,0.8233824225786064,-12.279097625978054;-1.8249924103327182,2.9830009771003967,-2.8737313072444373;-0.54992190095268,7.973217684055886,-22.77558359461491;-1.3081790931159614,0.5010306418358703,-9.682078418798717;-5.309336460245615,0.07211277277993311,-3.1725046888426007;-5.429345751983114,10.97605942107848,-21.060690826018018;-4.058582062689912,0.3613068674932016,-9.944689799678372;-1.2939178577842456,-3.292169752485153,-10.005145722046993;-23.309603360438786,17.705232634897957,-5.847500482180511;9.997878447599643,4.46600863224013,-12.737027996016145;-5.240937794138115,5.004004921963267,-18.230911333382984;-0.21351282750400036,-5.619538069551728,-6.502812582956896;
32.81566208559158,-60.85872901876791,-5.909900804564339;31.328322771804412,7.51220524292564,-9.335193246990299;-8.447044694679821,7.971723834839415,-16.5897182495287;10.345233392837438,-6.906669217669452,10.485190343461714;4.262480964902003,7.464247950443632,-16.873283585620282;-2.9343655541623153,0.822960171072956,-13.224182810890639;-1.7952408511673896,2.9811406017072377,-4.28454960385816;-0.5434281925763469,8.493425660996984,-19.47209150958774;-1.306999190548222,0.5008314010431119,-9.092844577291295;-5.3979740502459,0.07776187788909594,-4.084951877172838;-5.414939269924736,11.58797888535636,-18.362582926899;-4.045633174949338,0.35911490502599097,-9.356956398518811;-1.1729546245233995,-3.3117140737027873,-8.398877520792247;-23.309603318770645,17.705232603247847,-5.8475004717275905;10.205661302461234,3.0442500198244797,-8.463075608014723;-5.249958624084533,5.007036001087246,-18.44262100525671;-0.2305512632386274,-5.617529651507442,-6.878213459085144;
33.7752914189396,-61.003526640879585,-8.539550530195047;31.321950207356892,7.416651657395674,-9.384860719039262;-8.502982691328533,7.988175512825545,-15.739778782920776;10.381009630305222,-6.899890639884038,10.921273372557621;4.248721978223297,8.614997563749155,-14.582404098036513;-2.9331916274486565,0.8226690322429874,-13.842865943657273;-1.7811322987310012,2.979992383134119,-4.953335522112894;-0.5114911164309797,9.484091361875489,-16.962682728817434;-1.309558028622924,0.501272003260565,-10.355504264201734;-5.494434060121501,0.08551607221526725,-5.078824245248143;-5.39941917229792,11.978041272369527,-17.365190286643358;-4.042784672366631,0.3585999103432119,-9.224381854642473;-1.0966609820948876,-3.322408557923007,-7.389967435219685;-23.30960327725503,17.705232571713594,-5.847500461312929;10.221020575337407,2.967978084661707,-8.14289494726983;-5.229211319126484,5.00010018569452,-17.956315313661097;-0.20345544930905102,-5.620719752398497,-6.2815067732544865;
34.2767514866724,-61.102415882833796,-9.935516135775186;31.43756623267482,9.388835666274952,-8.357884912819095;-8.649557107232786,8.026849315112,-13.528753476918016;10.464562769895569,-6.882669023673858,11.942210873206129;4.196215310385081,7.893052348765641,-14.010790625472193;-2.9336898108386738,0.8227957448559218,-13.576666876904895;-1.767459616132511,2.9787353838850814,-5.602770360971;-0.5148177741619417,9.388064159490472,-17.16348453683393;-1.307006630043713,0.5008391379138314,-9.119522804476311;-5.501966157648966,0.08620252065590461,-5.156832066392262;-5.4266871477523555,11.713873402911998,-16.059735453426892;-4.0779926833967775,0.3648727449432274,-10.830984888688178;-1.062543304504322,-3.32663341254049,-6.939479141395211;-23.309603235890886,17.705232540294407,-5.847500450936268;10.227085457932855,3.985071360977264,-7.935838815737698;-5.258957071157843,5.010055986933866,-18.65330973462382;-0.2507832863617412,-5.61504674928336,-7.3228482367981;
34.7148701603567,-61.201831758909485,-11.167587767725287;31.361834979745208,8.040339987224659,-9.060452786349517;-8.751111169571677,8.050114053042302,-12.008445905787111;10.351422389702499,-6.905469956788587,10.56058814216107;4.247740036328721,8.272618044677866,-15.091593070048702;-2.936819352327012,0.8235035345686397,-11.992008456543864;-1.7819942888831284,2.9800759032583093,-4.912452782632219;-0.49819549255275375,9.617315713744794,-18.331409714083357;-1.3049882816324596,0.5005312274479599,-8.12838198137797;-5.449221601095021,0.08167694234550071,-4.612629669670799;-5.39601323419929,12.13328033578262,-16.632361684747202;-4.1065068640780815,0.37069460960102907,-12.136815898246596;-1.018267191233876,-3.3317622314645954,-6.355188077121841;-23.30960319467722,17.705232508989532,-5.847500440597355;10.225475351505038,4.857250777301134,-7.8422016010701405;-5.312582387323292,5.028922317139234,-19.915732620842956;-0.26337580863677124,-5.613328734252902,-7.601299822798726;
34.40475164445218,-61.12958369575963,-10.293057945471752;31.32341336246767,7.43920089917717,-9.373132214264707;-8.619064700990027,8.019320729517856,-13.986759941836493;10.345508753990206,-6.9066992336184185,10.488606836822694;4.3490845047783235,8.800679762063853,-17.590775816221118;-2.9386710911169502,0.8238924492574237,-11.032124616144984;-1.7928406776086334,2.980954451390427,-4.395979937019046;-0.43496233063420664,10.668190690347704,-21.25744791782907;-1.3049397706629215,0.5005265895502453,-8.126540187903508;-5.410155346532326,0.07863720894399495,-4.210347186448228;-5.321112518548962,12.8812429133306,-19.990947742028794;-4.116705298650147,0.37290345291352156,-12.605793909711672;-0.9913581503380402,-3.3347702619008053,-5.99990025186742;-23.309603153613033,17.705232477798194,-5.847500430295942;10.14105635015443,4.860926783749222,-9.628470595947599;-5.345598778306226,5.041100732268751,-20.695838794682416;-0.2664026972029216,-5.613013560842941,-7.667614788388146;
33.24845222767063,-60.91713885924425,-7.090024957362774;30.74432702560128,1.0867085405672618,-12.650648957082653;-8.260166872734265,7.910171660590968,-19.457648183013553;10.273797325307772,-6.919555254761007,9.616638785095535;4.45454708704076,8.389412676642063,-21.77758708082491;-2.9311306742269028,0.822148880320979,-14.877985174719498;-1.7929562128956522,2.980964147653058,-4.392836589024352;-0.41316911421194064,10.60608138954766,-26.110931025998276;-1.3126266206923027,0.5018680335616282,-11.838186126869275;-5.451092406615272,0.08182407118842228,-4.632212672815816;-5.269637189401285,12.863963855920968,-26.415826595310165;-4.144765757849827,0.37956009428769877,-13.901427739836791;-1.0795893863820432,-3.324547428427819,-7.163796006292609;-23.309603112697317,17.70523244671964,-5.847500420031771;9.797919770124503,6.277984611530215,-16.686579263784882;-5.283199290614223,5.018414018105313,-19.22237437215756;-0.22731557859482465,-5.617940865287476,-6.806456860738969;
35.172780264446835,-61.31863939366975,-12.468386212604164;30.292639913675956,-2.384275118910811,-14.41368172529702;-8.239951849223713,7.902971826348501,-19.770318664178692;10.249712498586684,-6.923584911269847,9.32433095724836;4.427365182295175,7.888221552745138,-21.68102164701852;-2.919309216237252,0.8182968309822951,-21.05736911911861;-1.769501929660303,2.9789355197215435,-5.506242312717113;-0.4724937316880852,8.723358836228849,-31.561030489488594;-1.3201605275947985,0.5037255436977468,-15.59444531221223;-5.601842908439448,0.0961926636402719,-6.187428040713586;-5.299619611824171,11.878578835478011,-30.396136900210998;-4.190891607827599,0.3919403771465937,-16.04278606748221;-1.230933638917107,-3.302788198565442,-9.167876310861729;-23.309603071929093,17.705232415753123,-5.847500409804603;9.645796884542689,5.657824579634276,-20.18540034968711;-5.436180963448279,5.077544817500414,-22.863615044066123;-0.32531850057740247,-5.604342266161754,-8.968091497308158;
36.069481049271424,-61.588158313522676,-15.059201490351292;27.72130275597106,-15.43210946373821,-20.76336570557433;-8.475442624764527,7.9802188886654095,-16.158126798236182;10.198149282546463,-6.932010222786866,8.699512443758692;3.868285886231682,1.2618306112402222,-14.682645263849373;-2.916604253676181,0.8172347495298984,-22.477956551746566;-1.794015251226139,2.9810459722244054,-4.340345730929965;-0.4805462359623371,9.234237832983194,-25.162869601454013;-1.3253845530714092,0.5052945235186823,-18.193760858145588;-5.88144090053108,0.13386392776648448,-9.086690153034215;-5.094984520335067,15.013674173389356,-30.880278959644823;-4.179994833259103,0.3888118990772613,-15.53464805420245;-1.2830245121026662,-3.294095015903232,-9.85993762072454;-23.309603031307407,17.705232384897904,-5.847500399614186;9.355957141763342,15.069342540850117,-21.44047014824883;-5.326216014969559,5.033845860637749,-20.236029981040893;-0.25956742777162445,-5.613937701123086,-7.5163451152394725;
38.51151298304154,-62.63280191175779,-22.500531817963505;28.285195100955743,-13.093007142794969,-19.664967540735034;-7.773920424468077,7.698227385689266,-27.184652873168943;9.71478864042492,-6.981517408497125,2.8871187056617416;4.1343380911535945,1.3129527008860364,-23.441401078344814;-2.894164023150746,0.804812227492618,-35.2160276459454;-1.7348560078621242,2.975060378741852,-7.1552139206909935;-0.5322289541712644,8.2745661876988,-23.573233729110886;-1.3543431838897764,0.5194196276463959,-33.73366925505559;-6.816633301663171,0.36948862661469845,-19.01983760607767;-5.321573087038206,11.552015738352955,-30.136062395129674;-4.275651735691031,0.41961416784605654,-20.045157945874514;-1.5793917997027789,-3.231858179893557,-13.829024144752918;-23.309602990831245,17.70523235415324,-5.847500389460283;9.350392772080692,6.5814770276430385,-26.68482103380323;-5.470029222198504,5.09216005841044,-23.68215116405487;-0.30809081148951445,-5.607059831051978,-8.586716626067906;
40.88626035266381,-64.17210211642383,-30.488192519197007;26.66347430703659,-19.388571169079867,-22.571973086194184;-7.49801948364698,7.54107359135197,-31.801840624131987;9.365649174251933,-6.986653004858128,-1.2843368173292795;4.130981790485706,-9.225227500817377,-47.76144476286323;-2.8731961119599934,0.7857511510116686,-49.29332636995295;-1.5513825033289175,2.9374079756102405,-16.02234117515507;-0.7333072374007809,2.516401849237244,-35.208884235656114;-1.3449126633424962,0.5137173099633895,-28.428430161842;-6.738818940476992,0.3430195199658905,-18.173751000117477;-5.388036620900343,10.656026736452546,-28.532221872629332;-4.323286927784126,0.4381546620466805,-22.340338489983942;-1.7519355148744657,-3.1856249673456083,-16.17154693682113;-23.309602950499666,17.7052323235184,-5.847500379342645;10.640203502732245,6.216463503326029,1.1266729422483976;-5.260491131901312,5.010647001608127,-18.69085555163425;-0.28443614393278993,-5.610440064690243,-8.06534142031972;
41.36243821018221,-64.5551386184568,-32.20833057783708;27.23821176105872,-17.299625879423957,-21.62511565598768;-7.389744636473685,7.470991568521769,-33.675721447274995;8.976707749252084,-6.961732877078789,-5.935248219585439;4.394697239193531,-4.790890066659911,-46.93233874283182;-2.867766914968683,0.7789871019551968,-53.576535737971895;-1.379168361590776,2.8734078684559257,-24.719832203564735;-0.5620114578595388,6.663473310912226,-32.33697994324146;-1.338688277306047,0.5105695739633185,-25.069423862991755;-6.652887121196067,0.315427654876884,-17.244863582786188;-5.237943042071279,13.821182678139085,-22.78737957494807;-4.322218041416647,0.4376627046811761,-22.28688356456614;-1.760494606777565,-3.183189266737571,-16.287473494388777;-23.309602910311703,17.70523229299266,-5.8475003692610406;10.570635601096777,7.188902501765424,-0.041877386231893965;-5.35013063372837,5.0428345375840795,-20.802294504806177;-0.3318971198516909,-5.603339495166593,-9.112866674164419;
41.07283323860576,-64.31754111816747,-31.154350679792586;27.765322248130136,-15.25456378109904,-20.680577806742896;-7.305431307631968,7.412709848101269,-35.16407086271189;8.780723921920695,-6.937081002131185,-8.289887735727476;4.5385076920804135,-1.6127056962185509,-44.876269649274526;-2.8661625645625355,0.7767457945443852,-54.94135472437844;-1.2891770419653226,2.82731833418714,-29.50056337928428;-0.47994539537770065,8.231784815015041,-34.72824738529498;-1.352109783142748,0.5180026331393353,-32.46776078000086;-7.050843984750442,0.45721102399572044,-21.59495638200305;-5.052161304020028,16.358670956722975,-24.79272774752413;-4.460308551958058,0.5044377398889037,-29.17371025199095;-2.00720761271533,-3.1029170956928858,-19.689237046598368;-23.30960287026645,17.705232262575308,-5.847500359215227;10.314999560332515,8.945296326614718,-4.716247441371117;-5.650841148099167,5.180721443877916,-28.152283194966856;-0.48511591384730035,-5.573973897389513,-12.522947926875759;
43.57493192699773,-66.78427749673801,-40.98953946583035;29.429119907285617,-7.612653300189902,-17.01821631353429;-7.5582378921775115,7.578025264048577,-30.775161521544625;9.235824701334462,-6.981928329670669,-2.834872775513425;4.382340053179465,-1.445311781566037,-38.127005764864606;-2.865898338231747,0.7763976825785674,-55.15417234641896;-1.220875710100565,2.7857212598398173,-33.28283520888131;-0.43897109671301204,8.936245586387775,-36.70664141020856;-1.384281508658511,0.548063870445678,-53.73723875854631;-8.52872282031586,1.334966930420522,-39.38425587944201;-5.124172449954948,13.379689572047148,-41.45082813527502;-4.737149821450113,0.7138730800024533,-44.79837155805345;-2.470380562807903,-2.906288499167409,-26.291782124204133;-23.30960283036293,17.705232232265626,-5.847500349204974;9.166320229226043,1.8840769953748273,-31.603232602270612;-6.450927009262075,5.851681936166349,-51.489411086762914;-0.9742061093684585,-5.4136183613910696,-23.789088471332473;
44.14932583342181,-67.50753669367646,-43.536781032540574;28.514803184266167,-12.080777447041388,-19.183383486569948;-7.756320221664009,7.689463316612015,-27.470901627167727;8.685697335880088,-6.922136839516339,-9.436010336471188;4.728417042995559,6.322485571211623,-35.14568997906854;-2.861283308727096,0.7692358351169176,-59.3648239218476;-1.272446124877866,2.8176676447625137,-30.415969731502848;-0.46569585312347284,7.78640731083949,-42.584385409731226;-1.3898705734206622,0.556403448138683,-58.56068677782331;-8.736379156614491,1.516557332333072,-42.22904759457262;-5.3800491901158685,8.739533683182305,-44.97098684844526;-4.964033213353767,1.0208511023294358,-61.981008557615716;-3.173046536768607,-2.4712949904514887,-37.15256778578838;-23.30960279060023,17.705232202062906,-5.847500339230044;8.791614327993884,-3.399066321256959,-39.66083247768714;-6.7355287442597644,6.300647073332209,-63.296332229765454;-1.2548780943057767,-5.268954435962276,-30.69521329631632;
43.201188281406715,-66.36113501594659,-39.42159405598302;27.471207023696245,-16.41175530305415,-21.21704399857379;-7.497895949388965,7.540378222052524,-31.808928003784274;8.658321498943316,-6.91728867461163,-9.767138643145184;4.611242875809966,0.7997684284030826,-42.12219164123657;-2.8664851125216635,0.7772021230500197,-54.6667624901079;-1.4087284531583755,2.8866126133156653,-23.18848541009337;-0.5111793913829115,7.33251455868105,-36.810588525501934;-1.3932235730361278,0.5622114633980562,-61.7778102153668;-8.3524028746581,1.194505309540238,-37.0599727704119;-5.359265962094606,10.01423668651678,-37.34787294766615;-4.956230200750705,1.005409240937658,-61.20644070708599;-3.0368525125877257,-2.570792093119583,-34.938558111004404;-23.309602750977426,17.705232171966458,-5.847500329290213;9.060744995700185,-0.7375941699702873,-33.80279563716216;-6.607416658993419,6.072089853918938,-57.48556965020537;-1.0682180329592288,-5.369841163051137,-26.055429245901614;
42.3938259504236,-65.49726027671542,-36.127555414533646;27.790691708846918,-15.154249507604995,-20.63394616473477;-7.358051561739476,7.449174791791204,-34.234638142243874;8.503277280117462,-6.887653420254114,-11.64688947307858;4.536112300012484,1.7238938524650207,-37.083586570957955;-2.8636104933999404,0.7729160598606569,-57.227908077594535;-1.385289277585805,2.876284098820077,-24.399129563373045;-0.5538366020112053,5.910950238140023,-41.70503222054158;-1.3879520086792643,0.5533495046740353,-56.8263306873999;-7.988858486503352,0.9396029542132307,-32.48059617567926;-5.219262995188903,11.500999803550783,-44.80528935147864;-4.960340711084902,1.0129869481275078,-61.59239934068051;-2.9163562761153403,-2.6520411710575487,-33.03120326516107;-23.309602711493607,17.70523214197558,-5.847500319385241;9.058415358611303,6.875230407066289,-33.66803008751047;-6.793669909596607,6.422585278358338,-66.29090558593751;-1.3429260862445154,-5.21442822506527,-32.95877402913371;
41.01031432633684,-64.26981001997868,-30.93271116881153;28.438812792169188,-12.411343502957717,-19.340250025667377;-7.637097533724461,7.624264283631479,-29.44659421780728;9.26866010978826,-6.983384696215567,-2.4425337397036424;4.246027029184156,-3.9278786079698107,-38.59384422678192;-2.8841275966790745,0.796904429065958,-41.537117341711976;-1.5143380031565663,2.926154817510349,-17.851585045167425;-0.4618283182260936,8.717360874722864,-33.88621811719951;-1.3631560873355903,0.5258997656179377,-38.97320564215026;-7.130814109299233,0.48987939840760214,-22.48490507292898;-4.848532012737994,19.301872459866033,-24.088141486758726;-4.710346329028919,0.6879281974600872,-43.124485913704035;-2.5343439290156096,-2.8735821050563906,-27.234573509461633;-23.309602672147864,17.705232112089575,-5.847500309514912;9.915217200711712,15.24218781825206,-9.058100019446266;-6.258928827930075,5.634776767357191,-45.05900852970802;-1.0056518849003218,-5.399276526471032,-24.543868632444376;
42.91678487667874,-66.04322546104416,-38.235409912090425;29.48643411143521,-7.303434141225874,-16.866242473894907;-7.745141441561867,7.683788915239783,-27.653726887690993;9.356130998346806,-6.986508363775378,-1.3979020433321532;4.251973309958763,-1.825291675000472,-34.01718245784143;-2.8713916825483565,0.7836361888256702,-50.656962779619825;-1.4513119251945852,2.9039298561982316,-21.012568832389;-0.8990134687659542,-1.1816142159265013,-34.09225722157373;-1.3905346515509027,0.5575079826536867,-59.177524392405246;-7.656328605135314,0.7416554207675972,-28.491347650776;-5.789711407767236,1.7272074279946352,-36.22028232826258;-4.850834535200907,0.8431635401047138,-52.52445959240909;-2.617404687528344,-2.830161619867215,-28.464330726859217;-23.3096026329393,17.705232082307777,-5.847500299678989;8.9785211582687,-6.1616792296062,-33.23578756671174;-6.3912378607091735,5.778802150458505,-49.39874615494805;-0.8575643895273329,-5.461746024261104,-21.03161708238972;
38.47867551498998,-62.615799127018235,-22.396761778252795;31.06034276722959,4.121761972754196,-11.091612367542552;-8.848566115298821,8.069820858928777,-10.557732073048829;9.770126797312297,-6.978559344333037,3.5492583670227766;3.8259404700634727,-3.513004367337225,-22.546270650455565;-2.9129206237050536,0.815630595678723,-24.466468097581927;-1.7800484215887473,2.9798840261943016,-5.002866875700079;-0.7681634453516617,2.691182495648846,-26.322630956303342;-1.3435588964661942,0.51301894631385,-27.72182666215175;-5.431841931411376,0.08040581771171151,-4.433874253230115;-5.57263474842864,8.05655293909576,-24.01393064206038;-4.524260932188039,0.5427199562941647,-32.518395673414375;-1.7033243819661,-3.1993712608998854,-15.508771708863843;-23.309602593867005,17.705232052629505,-5.847500289877256;9.53877427231275,1.0533132347482823,-22.86825648023821;-5.712074616872844,5.2143708083678675,-29.70357446214016;-0.2101111820270382,-5.6198988590761765,-6.427677414489857;
41.27525980745271,-64.48267958571842,-31.889602808069306;31.069067229652987,4.216705120301439,-11.042563206912448;-8.531181703672795,7.9960382942211625,-15.313172581745864;9.357360258481375,-6.986481140729295,-1.3832106127518244;4.1312382223822075,0.7794108091412415,-24.359603581373985;-2.903448494444125,0.8107764035321537,-29.742596402317346;-1.749496065936619,2.976799868812101,-6.4560120954326194;-0.6650918177554442,5.044618146909247,-26.06083318153316;-1.3531712340569897,0.5186599941197795,-33.06659272318566;-5.76915056583775,0.11705853960148668,-7.920186321554323;-5.5159542753329545,9.089816921476057,-23.897392125284277;-4.5708246265179096,0.574054482628434,-35.0379531198515;-1.6000532385745632,-3.226749881289797,-14.108533050326477;-23.30960255493013,17.705232023054077,-5.84750028010949;9.603156126987974,-2.8341819171981344,-20.51669992692014;-5.91886207193731,5.34646395653096,-35.151614098585064;-0.3538004266641006,-5.599737461374747,-9.59894867476859;
38.96149346349949,-62.879425943692304,-23.94540742800192;27.45401367842689,-16.475192919878072,-21.24588675897574;-8.631955130117598,8.021960577930868,-13.794767589766822;9.196669950427246,-6.979791983205623,-3.3026390871856535;3.5371409024420224,-2.3887692653536043,-10.81616923784514;-2.909514087891241,0.8140158916498486,-26.330167359771693;-1.7973751905581115,2.981272210279081,-4.181271363876631;-0.6611364409713432,6.957592599143226,-10.380149707179843;-1.3371186227825598,0.5098577453158643,-24.246344618587308;-5.345357684200389,0.07441351786580074,-3.5432704576685063;-5.323757573410659,14.027852690442423,-11.0018650759284;-4.364557916432508,0.45600544353015104,-24.35789092762198;-1.1546570639097231,-3.3144243896900756,-8.156638546518835;-23.30960251612778,17.70523199358084,-5.847500270375472;10.035055111504377,11.675175133990981,-9.104297976580204;-5.2850609005941775,5.019294437976711,-19.26734016745931;-0.029586786664656473,-5.634002466629996,-2.471248963528049;
39.95417296973264,-63.49916501237333,-27.24624612865836;27.350084613882785,-16.87653974008251,-21.431048842359893;-8.401800416084422,7.957764179398847,-17.280354479564586;8.899157330553662,-6.952978082083129,-6.8657436332461845;3.4075986808408376,-5.965473218034252,-13.750282620733367;-2.9109866181627027,0.8147436567462921,-25.508935784582484;-1.769072027939802,2.97889062307639,-5.525196982808733;-0.635981036164047,7.629965906753032,-9.428144793220728;-1.3409801472817553,0.5116945709016977,-26.31762987617156;-5.221025527939843,0.06791775958484816,-2.264994069607511;-5.24285006824693,15.36653411941833,-10.172728253334808;-4.398256340108113,0.47190716087730766,-26.030942212752038;-1.1515120486310075,-3.314882752080105,-8.115714063502887;-23.30960247745907,17.70523196420913,-5.847500260674981;9.912806246968945,15.002103778798574,-9.311424870421014;-5.327411886648305,5.034351489946765,-20.265542762728003;-0.04963269740573789,-5.633038743648149,-2.9101386718740017;
39.86678955034512,-63.43724179414833,-26.944162971063612;28.660694304683755,-11.419869555553529,-18.867286214590365;-8.423865820285906,7.964369181246138,-16.944344184793966;9.259580460053453,-6.983085405815279,-2.550982314593493;3.774510920294721,-0.6861833312366401,-15.255725000143343;-2.9134519028831534,0.8158725506048994,-24.179171060109546;-1.728119261546102,2.9742210828224995,-7.474839390417937;-0.5539229552737543,9.337388092785881,-10.267274130593602;-1.339093917393975,0.5107776309625908,-25.304197671091767;-5.071708306529794,0.06397488186886695,-0.7319050235668723;-4.9969714954732245,18.520507950910954,-13.191776041324346;-4.342162507497831,0.4460747949799756,-23.258191034747057;-1.0498871324998138,-3.3281675550328207,-6.7723241322238765;-23.30960243892318,17.705231934938286,-5.847500251007806;9.595072841263518,18.357615907943615,-12.891669561893117;-5.258017221761555,5.00970754746835,-18.630571388691877;0.06602459733541233,-5.636400375965166,-0.38148070739490514;
39.96273638231732,-63.50059932987786,-27.268341249223262;27.665672295413408,-15.651307596186875,-20.865042765131047;-8.300522113968187,7.924436045878947,-18.834374225290667;9.207932636860905,-6.980519704489629,-3.1679424212334872;3.7167575413013116,-0.49529153985946683,-13.015229187116176;-2.9098944567021126,0.8141911970948039,-26.135418645346647;-1.6671522579628242,2.964630650357933,-10.39314669561199;-0.5573035936361542,8.951689991727525,-12.903541288531748;-1.3428879635764204,0.512649003349032,-27.331204278643405;-5.431667037663016,0.08026680388779428,-4.432031119513223;-5.124708428936983,16.688312315813995,-13.412776457881733;-4.3878691399399194,0.4668571710542059,-25.512327634865088;-1.2435142753391133,-3.3008195029654006,-9.334460883905386;-23.30960240051922,17.70523190576766,-5.847500241373728;9.942356142192747,12.956124331123082,-10.275340523771423;-5.214778959582743,4.995452536941651,-17.619237762392196;0.03609253984574201,-5.636023644492409,-1.0352613107908155;
39.47034369444997,-63.18474282387748,-25.618715466064458;26.107874146015515,-21.290216434644634,-23.41703704567755;-8.46102554330301,7.975838872506573,-16.37744028405539;8.927827323545628,-6.956397344659523,-6.521569306330154;3.7810175277801905,2.819081076627675,-9.072909317513574;-2.903020305111453,0.810546853838491,-29.971224607549217;-1.685689910646577,2.967893666095211,-9.504807434247912;-0.46919756327035494,10.884114053253192,-12.872904279038888;-1.3423609493223045,0.5123805229598692,-27.050432688062145;-5.513789689017106,0.08729344206291967,-5.278395021796133;-5.0922005519718665,17.216704405442517,-12.913027112651527;-4.412673731904823,0.47907068613005277,-26.752280047502822;-1.2350260580070684,-3.3020991219156985,-9.222298289396388;-23.30960236224635,17.70523187669662,-5.847500231772537;9.88649526368528,9.839211677096028,-13.378268992732686;-5.193188341762374,4.988753090941698,-17.119039427255615;-0.040198614109534736,-5.633498727151019,-2.7032836469292754;
36.813540278515305,-61.85651534089177,-17.26225074474291;25.9814897015634,-21.70902684994342,-23.60086680131287;-8.00358791084931,7.808315273408214,-23.47835774734228;8.358701241343837,-6.855318088283056,-13.410469397928363;3.8141923736776557,4.523589744027595,-7.205063318297107;-2.896540821494708,0.8065206015474691,-33.745747730432356;-1.6399167826518983,2.9593111067537445,-11.706966923168284;-0.4621512170623913,11.364851044276453,-10.080720220192674;-1.3465984945904956,0.5146643250986582,-29.36981392040512;-5.739253144621488,0.11291749425979525,-7.609632586854364;-5.222412408819824,15.523806982623562,-11.312831314508419;-4.409778157384265,0.4776445617987297,-26.607505457908893;-1.2283092296275302,-3.3032237898019456,-9.133070581337158;-23.309602324103725,17.70523184772452,-5.847500222204015;9.953736107760959,7.134686524318921,-13.058982380890072;-5.222046128499699,4.997942933721982,-17.790507660955043;-0.1006622006265383,-5.62990914949384,-4.026652761158179;
37.35235420270002,-62.076397145087356,-18.888904693032096;25.45481862269065,-23.40603473766415,-24.33764008517908;-7.8535307383155475,7.738747526830175,-25.885135797909122;8.44565211269018,-6.875356232716026,-12.348360295264925;3.8891947311315835,4.550639262651983,-9.566098793305503;-2.8812787306854015,0.7943049280115111,-43.443137200951625;-1.555061919648994,2.9384870660937716,-15.840566286546402;-0.5112734439500781,9.999336337063644,-12.579085064186074;-1.3584230936223929,0.5222561692897256,-36.10956362791702;-6.285989266022307,0.2146263374776629,-13.329409841907221;-5.248935400305535,15.073274300595155,-11.735720848014779;-4.561881306537164,0.5678546086502705,-34.549592566348785;-1.3731512356894768,-3.2774359084442066,-11.06114487720502;-23.309602286090517,17.705231818850713,-5.8475002126679625;10.063891275285854,6.777756083207187,-10.816489936214417;-5.488769083293242,5.100460134497204,-24.13664130130723;-0.37868984488349566,-5.595371748962063,-10.150394328281227;
39.10543951628367,-62.96656488180387,-24.42015623515136;26.984325406180904,-18.239015668955066,-22.053272583429194;-7.734466297306256,7.677877890951388,-27.83024253333827;8.403853471290583,-6.865984792060738,-12.858374431966691;3.9992451411285184,0.25072701554734866,-20.904727728668078;-2.863540784417386,0.7728397406016785,-57.27220830688335;-1.4400872727449778,2.8995476929290334,-21.583024022992984;-0.6709607853020867,6.305604811819379,-14.029899667678325;-1.3711963948414914,0.533041947075835,-44.1579379653276;-6.63963086251339,0.3112949961497915,-17.101845935834685;-5.452482562614275,11.960161806027099,-11.275924299634795;-4.71014724577319,0.6875900792967854,-43.10917436032556;-2.072613933781308,-3.078665586311331,-20.604672825340117;-23.309602248205902,17.705231790074595,-5.847500203164167;9.860392196204085,3.8161159382421754,-15.77569187655472;-5.843745245494844,5.295371562526817,-33.13618965880807;-0.607104293011274,-5.543829748645276,-15.26932877189579;
35.9653395592136,-61.554543735712336,-14.756107274168798;25.93037761829694,-21.876707549433338,-23.674229875414582;-7.78003470398445,7.701781608984317,-27.082078895466587;8.302385521278639,-6.841386642453957,-14.100749145668644;3.543043041487193,-3.5218746478381404,-13.220587355275903;-2.871249095879872,0.7834794913122312,-50.758390797359716;-1.4607537368642656,2.907458924623794,-20.536317168701444;-0.7481489642781708,4.636590755054744,-13.559504316912903;-1.377399420562518,0.5395286643373274,-48.46312756098936;-7.154464765133903,0.4993149616473471,-22.747182304981653;-5.399140689890298,12.88899455697378,-10.75097219319914;-4.794422930559105,0.7746563616147358,-48.54591162131625;-2.387665051626491,-2.9460878852809174,-25.087873264127985;-23.30960221044907,17.705231761395517,-5.847500193692424;10.342718866231664,7.669564594823603,-4.629189296701547;-5.973214590549833,5.385990615704853,-36.64351776910637;-0.7283751638042765,-5.50760570593801,-18.03487227719611;
35.943704373367716,-61.54586837096276,-14.690174259565428;26.22620591345214,-20.897928462772647,-23.24459727770963;-7.931994738893858,7.776093254638776,-24.620733514019804;8.240613991204903,-6.825204586568331,-14.860283713333079;3.5263506697251286,-2.178393638269978,-10.062517692433463;-2.880370832812458,0.7933864731808541,-44.09382408618741;-1.5523296100318893,2.937700216419773,-15.973091917471592;-0.7351572693470547,5.232305797621203,-11.023847589168291;-1.3646426019892306,0.5271230962040337,-39.900822882327695;-6.825157554697598,0.37254565968171294,-19.112671707018265;-5.425747254357494,12.681888535961543,-9.17063380194351;-4.643301810278452,0.628985395185439,-39.119410854639966;-2.032108810915746,-3.0938676693667553,-20.036664348251303;-23.309602172819176,17.705231732812877,-5.84750018425253;10.486374464686174,9.12659477132249,-1.051009323381166;-5.920735350614979,5.347730015989864,-35.20243565516976;-0.614223599827796,-5.541959972929428,-15.4304228378511;
37.554556051551735,-62.16912552758621,-19.51351391427451;29.799510461439215,-5.5092885049951965,-15.97755543994243;-7.916234186377066,7.7686611520344995,-24.87508175799804;8.625655495690289,-6.911268278503625,-10.162753704428969;4.205053893336992,3.0276181054527402,-22.633727469411653;-2.8879345546796293,0.8001508861874399,-39.05278639141355;-1.6454097122182154,2.9603942480808962,-11.44129089145288;-0.5102097382706531,8.104256329302714,-29.55141407377493;-1.3717290700281162,0.5335638864421117,-44.51674996696732;-6.7862447617276995,0.35893043031708927,-18.688774316186997;-5.178887184594543,13.755178797893192,-30.694736176488735;-4.845281406070948,0.836097168053755,-52.12148278928367;-2.1935152420593296,-3.031409648422378,-22.306392180724007;-23.309602135315426,17.705231704326067,-5.847500174844279;9.629474118727796,2.1839091335511274,-20.90091325011409;-6.276507507953177,5.652780491878014,-45.61703590934188;-0.712088468444793,-5.51278270572015,-17.661540845321216;
43.87380148100383,-67.15452899340929,-42.30305022235483;30.132401719659814,-3.4630481277392082,-14.95650174333369;-7.825085320130498,7.7246006047016476,-26.347381119604005;9.049048359012355,-6.968880468776336,-5.068449916297411;4.071701125917791,1.9974283614666941,-20.04129356795829;-2.8864480021415093,0.7989032532223868,-40.02697117281259;-1.6510638846897352,2.961571360788808,-11.1679491293316;-0.6429932790437705,6.34423228444516,-18.993455341193656;-1.3650561116287498,0.5274642729800321,-40.166969903562276;-6.584804879007396,0.2945703478788029,-16.51202752710019;-5.612028746974469,8.424642662475067,-16.788831053536967;-4.727051057710566,0.7036524342073751,-44.15438087635877;-2.0576620128634957,-3.084553005579834,-20.39326218940242;-23.30960209793704,17.705231675934456,-5.847500165467471;10.044949190840034,-3.4204220535405563,-10.76159614864693;-6.133564908245339,5.516319115360126,-41.231543507201124;-0.691618306557681,-5.519287707365284,-17.192636348893434;
41.56694641989749,-64.7292536408717,-32.96365188033657;29.402063580701586,-7.7566702330489,-17.088898329905227;-7.717955714617853,7.668934776011534,-28.10335508424599;8.773804045269802,-6.936039208743719,-8.373235300183453;4.046709846521299,-0.5092989549542022,-23.988620153499433;-2.885558052585765,0.7981531080117905,-40.60230707561335;-1.6455580865640356,2.960459112356288,-11.433510233601034;-0.6174574505246344,6.379223562162567,-23.648764779225218;-1.3579778613225182,0.5219546859643533,-35.86861777718307;-5.68409279548553,0.10577178632919182,-7.0383337756236415;-5.555656805583952,9.37274405090452,-17.162720492134426;-4.634885862319071,0.622115145060381,-38.630606544566895;-1.8596335167159634,-3.152877278300892,-17.646524399997666;-23.309602060683208,17.705231647637458,-5.847500156121915;10.024520763862784,-3.7687714879714225,-11.071415233760046;-6.07869387283809,5.469248616989677,-39.6264256283236;-0.6656183201757234,-5.52717712335868,-16.5977723724937;
38.52259756296924,-62.63979727154533,-22.53745210932775;28.971414474494285,-9.949077578174315,-18.158158584383358;-7.747763752190328,7.684899934919431,-27.612399599007787;8.669736324967584,-6.919337911997612,-9.628928338728343;3.8570211524951206,-0.004188136194615666,-16.66786788278394;-2.9002179047353875,0.8088392291908545,-31.62159042752998;-1.7594597024315446,2.977927559119463,-5.983153807128716;-0.597204666919811,7.363855182023917,-18.963418402519874;-1.348391973454267,0.5156916966449959,-30.36168296603963;-5.25358219666536,0.0692761546518661,-2.599794719168777;-5.335359249753368,13.095857513012795,-16.68356289850904;-4.5492865000115925,0.559169034917683,-33.86375333498506;-1.643695531933366,-3.215547756973233,-14.698947651614109;-23.30960202355313,17.70523161943448,-5.847500146807402;10.00532975361236,4.274546271562397,-12.603729397023336;-5.91484497927722,5.343615134228297,-35.04311776939248;-0.49169366550737326,-5.572611957651555,-12.670005760229586;
33.053458759259826,-60.88944232755983,-6.557121927983324;27.19469787084012,-17.452686727348613,-21.693827896988;-9.027038878815826,8.099132018343054,-7.91560753970726;8.903641791654895,-6.9535592144183305,-6.81180254565248;3.469921218503442,6.827031575091273,7.6475032245745425;-2.937220195216637,0.8235926284354856,-11.778076412723813;-1.9679393420790552,2.9817332359217334,3.8920279129315247;-0.4089261347997587,12.98977258947812,-6.096949337234914;-1.3197639713110516,0.5036189155855861,-15.403181814994042;-4.513790870187442,0.08497572907507167,4.998685006604973;-5.067425519187971,17.91720335008566,-10.034035751659633;-4.27769548274262,0.4203631654606823,-20.143444087681672;-0.9408031030118353,-3.3395722022195393,-5.33582899766067;-23.30960198654603,17.705231591324907,-5.847500137523737;10.077773642264399,13.516406804134277,-6.99375948738426;-5.230185929702585,5.000634597691659,-17.981553593921923;-0.014048147932116617,-5.6345363831069974,-2.131438618427893;
36.37511205800098,-61.69430234949873,-15.959156810419577;26.531607629207954,-19.847969275835982,-22.777490046025033;-8.380817585081813,7.951157373942003,-17.600834778184172;8.219694865779758,-6.819371068882551,-15.118729703501511;3.772791299366843,7.938495681555076,-0.3293735173453989;-2.925177041207689,0.8203924978805046,-17.949487056099173;-1.9043345277422263,2.9843607205603924,0.8807856249696258;-0.37189239218805514,13.610956775028702,-7.635025381825713;-1.3306965600900877,0.5071835086571173,-20.90119562986888;-4.70600133042857,0.07133007095202992,3.0222880521642352;-4.90508649833838,20.11854065119508,-10.238713898477275;-4.3605667010384135,0.4541764970396982,-24.160164266018555;-0.8369293591203564,-3.3482500685584418,-3.969434901765368;-23.309601949661154,17.705231563308175,-5.847500128270735;9.936343930826634,12.717615528049272,-10.577264206503742;-5.109946155849339,4.964470418036623,-15.19355264227405;0.09668024477188819,-5.636431680864718,0.28860113270438603;
33.096223484068545,-60.897918812678824,-6.6760094551957945;26.650393291797123,-19.43498019293434,-22.592907756122383;-8.336228433495553,7.936586665131414,-18.283920642467336;7.615550191924845,-6.610489935396497,-22.721176655395478;3.6518253361833457,5.048524650932049,-1.1322897270319494;-2.918126531124019,0.8178391254561695,-21.677655697956283;-1.819835284032478,2.982705941173977,-3.1172886036474665;-0.4336022105355585,12.459575580347064,-6.062314753130146;-1.340577914330686,0.5114987133869645,-26.10281025264969;-4.928352039937712,0.06399756159238468,0.739396385107888;-4.83875397576369,20.99679925213315,-10.25886128979149;-4.44732737639951,0.49727024723459157,-28.509905305722178;-0.9111131137708754,-3.3423781104323185,-4.944151758456712;-23.309601912897715,17.705231535383678,-5.847500119048198;9.732430981927287,17.68785046369691,-10.637087803158273;-5.221722256020095,4.997742469128639,-17.782923767933603;-0.02549351812521139,-5.634171112757761,-2.3811316055131684;
33.807115515059145,-61.00978783866007,-8.628804558155997;26.564277451245914,-19.736860142580788,-22.728149313665245;-8.277360953711986,7.916382593639888,-19.191377797402247;7.5041713559742265,-6.561798367640354,-24.164310314270647;3.846948261240402,4.553016879038434,-8.204982945382053;-2.895299298800653,0.8056186131845188,-34.518054408028036;-1.6616113978142026,2.9634974404565946,-10.660109022223782;-0.48579673327537964,10.994800195533783,-8.851979465284224;-1.3542923147339847,0.5194013390352343,-33.713071109043845;-5.603519258992663,0.09678368633309442,-6.205573072531763;-5.255907405507096,15.301770409536715,-9.142068149457454;-4.487580482292777,0.5202171457786129,-30.590784123104527;-0.9990795293613746,-3.3338327540390296,-6.102621388435871;-23.30960187625495,17.70523150755085,-5.847500109855929;10.010765504170095,7.974714819548071,-11.534344490306808;-5.305923990637357,5.0267451869230815,-19.758999642150187;-0.20727736708729028,-5.620139814755661,-6.366716114772075;
36.88510616071889,-61.88480323390659,-17.47695373690506;26.821960522606794,-18.825092259960922,-22.31837806062408;-8.433243586545156,7.967585972882727,-16.79972644490183;7.648781797167413,-6.624409401790906,-22.29322758669684;4.078017707524167,5.054375031517911,-14.82910813234404;-2.8587764795325925,0.7647194586172497,-61.929688505727874;-1.3820530814791212,2.874803624806565,-24.56556203831552;-0.5919957800616263,8.503763064990999,-10.233923289020318;-1.383040938908266,0.54642519005644,-52.75332059491679;-6.781686564878175,0.3575824654438431,-18.639444229331176;-5.394004113395391,12.646836071691416,-13.115485505297912;-4.798999499545575,0.7819854336442081,-48.92566071562952;-1.5171624689929755,-3.2449745695560916,-12.995766458326965;-23.309601839732103,17.705231479809104,-5.847500100693744;9.454834630715295,4.71955866553495,-24.68353107633773;-6.032576738651432,5.432110209166989,-38.31157183510325;-0.5916766175013991,-5.547895119918172,-14.920868041576895;
37.09697086362997,-61.96981663427968,-18.11510214534672;26.391137535367026,-20.333837923986856,-22.994137572092935;-8.431313495560735,7.966977263011468,-16.829575216644983;7.845309822020043,-6.700703894140843,-19.788976533688135;3.7027972523330526,1.6024531840244403,-8.717208616796729;-2.8573485746807887,0.7618990206759398,-63.50128772484389;-1.3805749913395582,2.874130821123532,-24.64424661335293;-0.6130707353834869,8.301265552557167,-8.043776432688968;-1.3893084002657363,0.555488934825669,-58.04562431267724;-7.333489055509873,0.5787456577845307,-24.76443333734081;-5.275731574667894,14.49451841512868,-13.074725810193684;-4.9538377427022535,1.00086999508302,-60.97508711401256;-2.7117652407200463,-2.777265057643823,-29.882825006970112;-23.30960180332842,17.705231452157886,-5.8475000915614554;9.415260010374572,8.007078536798051,-24.67713934824068;-6.28473176863346,5.6608586571992525,-45.87270583389057;-0.8618249650964249,-5.460103104381355,-21.130868635807047;
33.363676974459366,-60.9351147767333,-7.406550921681999;26.411761184316944,-20.26417591921672,-22.963274150416886;-8.05307579703145,7.829489252042196,-22.695277977104187;7.7631440893966435,-6.670071872750277,-20.831038512269068;3.3926183563970937,1.8071211742648177,1.5747496276186261;-2.8668404807842096,0.7777184449735284,-54.354738041945936;-1.4658676287295567,2.9094098321922592,-20.277756971842408;-0.6257675899223365,8.659817393684706,-2.702255777545844;-1.3852991333108697,0.5495082387473407,-54.5924999437884;-7.504079714917422,0.6616105952742093,-26.718886856712402;-5.269736633889648,15.07359339883124,-9.325066912667566;-4.901876890257982,0.9151034966396734,-56.47987815521139;-2.8495692346611183,-2.6946680201538564,-31.991272788316145;-23.309601767043173,17.70523142459661,-5.847500082458876;9.999990807735427,10.350203402293168,-10.680617886348482;-6.138716651175926,5.521019191797609,-41.38598169995984;-0.9097852260454824,-5.441002060554216,-22.259352866968356;
36.48437366392032,-61.73650937542345,-16.286071086355502;27.236672848047803,-17.30470640887439,-21.627367196689775;-7.682447968598507,7.649667928893287,-28.690656060864875;7.709798050167299,-6.649170589203794,-21.511310080347663;3.660839420682943,1.7918693559695829,-7.0332909784173125;-2.862944290929715,0.7719169481200567,-57.809365561858286;-1.4768265673240628,2.913386620869265,-19.725323986500946;-0.5820393518726454,9.435658171305718,-4.251075361684023;-1.3851035299261505,0.549179059346445,-54.397330978355505;-7.563553124290343,0.6923139665504174,-27.407823999232097;-5.284596034324363,14.737294920346924,-10.185536889712878;-4.904890291332997,0.9197788688736236,-56.730614097605375;-3.0834566023794023,-2.537696810340579,-35.68889720661697;-23.309601730875606,17.70523139712474,-5.847500073385815;9.816086404704167,6.341600688164636,-16.2667431983179;-6.1291641441680484,5.512469635031432,-41.101452878634944;-0.8614170817358409,-5.460302185674678,-21.121061208118643;
